# Column 0: Wavenumber (cm^-1)
# Column 1: Translational
# Column 2: Translational (g)
# Column 3: Translational (s)
# Column 4: Rotational
# Column 5: Rotational (g)
# Column 6: Rotational (s)
# Column 7: Vibrational
# Column 8: Total

0.000000 3.746102 3.746102 0.000000 0.295673 0.295673 0.000000 0.027242 4.069017
1.667740 3.771831 3.743636 0.028194 0.286972 0.295655 0.000000 0.023210 4.082012
3.335479 3.923933 3.736258 0.187675 0.283433 0.295601 0.000000 0.020644 4.228011
5.003219 4.164233 3.724024 0.440209 0.283873 0.295511 0.000000 0.019240 4.467346
6.670958 4.454557 3.707031 0.747526 0.287106 0.295386 0.000000 0.018692 4.760354
8.338698 4.757593 3.685409 1.072184 0.291642 0.295224 0.000000 0.018444 5.067679
10.006437 4.975285 3.659323 1.315963 0.297796 0.295027 0.002769 0.018780 5.291862
11.674177 5.151841 3.628966 1.522875 0.301050 0.294794 0.006256 0.019155 5.472046
13.341916 5.383815 3.594558 1.789257 0.300968 0.294527 0.006442 0.019181 5.703965
15.009656 5.640213 3.556343 2.083870 0.299519 0.294223 0.005295 0.018908 5.958640
16.677396 5.944663 3.514583 2.430081 0.297833 0.293886 0.003947 0.018621 6.261117
18.345135 6.319565 3.469553 2.850013 0.297592 0.293513 0.004079 0.018504 6.635661
20.012875 6.700563 3.421540 3.279023 0.300610 0.293106 0.007504 0.018361 7.019534
21.680614 7.020158 3.370837 3.649321 0.307487 0.292665 0.014823 0.018274 7.345919
23.348354 7.317252 3.317739 3.999514 0.317420 0.292190 0.025230 0.018397 7.653069
25.016093 7.629498 3.262540 4.366958 0.325365 0.291681 0.033684 0.018950 7.973814
26.683833 7.828361 3.205529 4.622832 0.331124 0.291140 0.039984 0.019521 8.179006
28.351572 7.969834 3.146991 4.822844 0.335818 0.290565 0.045253 0.019727 8.325379
30.019312 8.106378 3.087196 5.019182 0.336101 0.289959 0.046142 0.019852 8.462331
31.687052 8.251214 3.026407 5.224807 0.335107 0.289320 0.045787 0.019803 8.606123
33.354791 8.392511 2.964870 5.427641 0.338284 0.288650 0.049634 0.019538 8.750333
35.022531 8.485747 2.902820 5.582927 0.342981 0.287949 0.055032 0.019170 8.847897
36.690270 8.566130 2.840473 5.725657 0.346296 0.287217 0.059079 0.018695 8.931121
38.358010 8.659168 2.778031 5.881137 0.349633 0.286456 0.063177 0.018485 9.027286
40.025749 8.656140 2.715679 5.940461 0.353674 0.285664 0.068010 0.018466 9.028280
41.693489 8.544354 2.653586 5.890768 0.359302 0.284844 0.074458 0.018626 8.922282
43.361229 8.339728 2.591905 5.747823 0.363339 0.283995 0.079343 0.019202 8.722269
45.028968 8.223474 2.530771 5.692703 0.367221 0.283119 0.084103 0.019867 8.610562
46.696708 8.146853 2.470306 5.676547 0.371055 0.282215 0.088840 0.020391 8.538300
48.364447 8.086110 2.410618 5.675492 0.370209 0.281284 0.088925 0.020621 8.476940
50.032187 8.087686 2.351799 5.735887 0.370833 0.280327 0.090506 0.020401 8.478919
51.699926 8.180901 2.293930 5.886971 0.375588 0.279344 0.096244 0.020138 8.576627
53.367666 8.309831 2.237079 6.072752 0.379937 0.278336 0.101601 0.019840 8.709608
55.035405 8.363151 2.181303 6.181848 0.386706 0.277304 0.109402 0.019813 8.769671
56.703145 8.328103 2.126649 6.201454 0.393508 0.276248 0.117260 0.020504 8.742115
58.370885 8.235035 2.073155 6.161880 0.397627 0.275169 0.122458 0.021216 8.653878
60.038624 8.077469 2.020848 6.056621 0.398877 0.274068 0.124809 0.021572 8.497917
61.706364 7.995231 1.969750 6.025481 0.398752 0.272944 0.125808 0.021846 8.415830
63.374103 7.961216 1.919875 6.041340 0.399023 0.271800 0.127223 0.022188 8.382426
65.041843 7.842091 1.871232 5.970859 0.396449 0.270635 0.125815 0.022483 8.261023
66.709582 7.675279 1.823821 5.851457 0.391755 0.269449 0.122305 0.022513 8.089546
68.377322 7.519904 1.777642 5.742261 0.387714 0.268245 0.119469 0.022569 7.930187
70.045061 7.294337 1.732687 5.561650 0.381939 0.267022 0.114917 0.022928 7.699204
71.712801 7.005032 1.688946 5.316085 0.376629 0.265781 0.110848 0.022830 7.404490
73.380541 6.742380 1.646405 5.095975 0.376031 0.264523 0.111509 0.022212 7.140623
75.048280 6.643371 1.605048 5.038323 0.376505 0.263248 0.113257 0.021728 7.041604
76.716020 6.587124 1.564856 5.022268 0.374719 0.261957 0.112762 0.021682 6.983525
78.383759 6.433611 1.525809 4.907802 0.373655 0.260650 0.113004 0.021798 6.829064
80.051499 6.224955 1.487884 4.737071 0.378127 0.259329 0.118798 0.022062 6.625145
81.719238 6.010254 1.451057 4.559197 0.385236 0.257994 0.127242 0.022246 6.417736
83.386978 5.785159 1.415305 4.369854 0.389956 0.256646 0.133311 0.022241 6.197356
85.054717 5.618219 1.380601 4.237618 0.393048 0.255284 0.137764 0.021972 6.033239
86.722457 5.424637 1.346920 4.077717 0.395276 0.253911 0.141366 0.021462 5.841376
88.390197 5.331073 1.314236 4.016837 0.392906 0.252526 0.140380 0.020983 5.744962
90.057936 5.284269 1.282522 4.001747 0.386285 0.251130 0.135155 0.020883 5.691437
91.725676 5.194800 1.251750 3.943050 0.380678 0.249723 0.130954 0.021039 5.596517
93.393415 5.087675 1.221896 3.865779 0.382790 0.248307 0.134482 0.021462 5.491927
95.061155 4.999679 1.192932 3.806747 0.386436 0.246882 0.139553 0.021811 5.407926
96.728894 4.955569 1.164831 3.790738 0.386903 0.245449 0.141454 0.021840 5.364312
98.396634 4.937563 1.137569 3.799994 0.385792 0.244007 0.141785 0.021582 5.344937
100.064373 4.894045 1.111119 3.782926 0.385017 0.242558 0.142459 0.021172 5.300234
101.732113 4.844535 1.085457 3.759078 0.385308 0.241102 0.144206 0.020963 5.250806
103.399853 4.760428 1.060558 3.699870 0.384634 0.239640 0.144994 0.020869 5.165931
105.067592 4.646446 1.036397 3.610049 0.386387 0.238173 0.148214 0.021074 5.053907
106.735332 4.541634 1.012952 3.528682 0.394568 0.236700 0.157868 0.021661 4.957863
108.403071 4.499529 0.990199 3.509330 0.399917 0.235222 0.164695 0.022326 4.921773
110.070811 4.477279 0.968116 3.509163 0.403038 0.233740 0.169297 0.022777 4.903094
111.738550 4.443506 0.946682 3.496824 0.403322 0.232255 0.171067 0.022917 4.869745
113.406290 4.437691 0.925874 3.511817 0.405669 0.230767 0.174903 0.022753 4.866113
115.074029 4.409667 0.905673 3.503994 0.410691 0.229275 0.181415 0.022522 4.842879
116.741769 4.340915 0.886058 3.454857 0.413867 0.227782 0.186085 0.021946 4.776728
118.409509 4.264817 0.867010 3.397807 0.417546 0.226287 0.191259 0.021452 4.703815
120.077248 4.179629 0.848511 3.331118 0.424380 0.224790 0.199590 0.021334 4.625344
121.744988 4.069722 0.830542 3.239180 0.431602 0.223293 0.208309 0.021405 4.522729
123.412727 4.002451 0.813086 3.189365 0.436613 0.221795 0.214818 0.021645 4.460709
125.080467 3.987539 0.796125 3.191413 0.438867 0.220298 0.218569 0.022223 4.448629
126.748206 3.988054 0.779644 3.208410 0.441610 0.218800 0.222810 0.023126 4.452790
128.415946 4.016101 0.763626 3.252474 0.445150 0.217304 0.227847 0.024015 4.485266
130.083686 4.050658 0.748057 3.302601 0.450776 0.215808 0.234967 0.024417 4.525850
131.751425 4.087961 0.732920 3.355041 0.458435 0.214315 0.244120 0.024675 4.571071
133.419165 4.075885 0.718203 3.357682 0.469117 0.212823 0.256294 0.025079 4.570081
135.086904 3.978011 0.703890 3.274121 0.478892 0.211333 0.267559 0.025304 4.482207
136.754644 3.908052 0.689970 3.218082 0.484090 0.209846 0.274245 0.025169 4.417311
138.422383 3.867139 0.676428 3.190711 0.483963 0.208362 0.275602 0.025120 4.376222
140.090123 3.807684 0.663253 3.144431 0.478124 0.206881 0.271243 0.025260 4.311068
141.757862 3.780072 0.650432 3.129640 0.474156 0.205403 0.268752 0.025447 4.279675
143.425602 3.798491 0.637955 3.160536 0.478325 0.203930 0.274395 0.025586 4.302401
145.093342 3.852862 0.625810 3.227052 0.485316 0.202460 0.282855 0.025716 4.363894
146.761081 3.894858 0.613985 3.280872 0.495217 0.200995 0.294222 0.026170 4.416244
148.428821 3.910523 0.602472 3.308051 0.509209 0.199535 0.309674 0.026715 4.446447
150.096560 3.924749 0.591260 3.333490 0.518943 0.198079 0.320864 0.027225 4.470917
151.764300 3.911287 0.580338 3.330949 0.522191 0.196629 0.325562 0.027384 4.460862
153.432039 3.866678 0.569699 3.296979 0.520960 0.195184 0.325776 0.027208 4.414846
155.099779 3.762407 0.559333 3.203074 0.519993 0.193745 0.326248 0.027605 4.310004
156.767518 3.704357 0.549231 3.155126 0.523195 0.192312 0.330883 0.028254 4.255806
158.435258 3.717541 0.539385 3.178156 0.529543 0.190884 0.338659 0.028582 4.275667
160.102998 3.750475 0.529787 3.220687 0.538298 0.189463 0.348834 0.028761 4.317534
161.770737 3.804242 0.520430 3.283812 0.546388 0.188049 0.358339 0.028647 4.379277
163.438477 3.850713 0.511305 3.339408 0.553716 0.186641 0.367075 0.028427 4.432856
165.106216 3.849734 0.502406 3.347328 0.561421 0.185239 0.376181 0.027952 4.439107
166.773956 3.815907 0.493726 3.322180 0.571199 0.183845 0.387353 0.027627 4.414732
168.441695 3.725120 0.485258 3.239862 0.578640 0.182458 0.396182 0.028128 4.331888
170.109435 3.656976 0.476995 3.179980 0.581105 0.181078 0.400027 0.028794 4.266875
171.777174 3.618437 0.468932 3.149505 0.582426 0.179706 0.402720 0.029083 4.229946
173.444914 3.575540 0.461062 3.114478 0.584234 0.178341 0.405893 0.029511 4.189285
175.112654 3.561782 0.453380 3.108402 0.587689 0.176984 0.410705 0.030005 4.179476
176.780393 3.556441 0.445879 3.110562 0.599186 0.175635 0.423551 0.030424 4.186052
178.448133 3.544439 0.438555 3.105884 0.611989 0.174293 0.437695 0.030566 4.186994
180.115872 3.551309 0.431402 3.119907 0.622742 0.172960 0.449782 0.030775 4.204826
181.783612 3.557791 0.424415 3.133376 0.622364 0.171635 0.450729 0.031233 4.211389
183.451351 3.543540 0.417590 3.125950 0.613250 0.170318 0.442932 0.031107 4.187897
185.119091 3.492401 0.410921 3.081479 0.603333 0.169009 0.434324 0.030570 4.126303
186.786830 3.447053 0.404405 3.042648 0.600994 0.167709 0.433285 0.031199 4.079246
188.454570 3.461593 0.398036 3.063557 0.610561 0.166417 0.444144 0.032383 4.104536
190.122310 3.484101 0.391811 3.092290 0.633321 0.165133 0.468188 0.033209 4.150631
191.790049 3.484763 0.385725 3.099038 0.654827 0.163859 0.490969 0.033795 4.173385
193.457789 3.492993 0.379775 3.113218 0.668559 0.162593 0.505966 0.033999 4.195551
195.125528 3.518750 0.373956 3.144795 0.670872 0.161335 0.509537 0.034053 4.223676
196.793268 3.515581 0.368265 3.147316 0.668705 0.160087 0.508619 0.034108 4.218394
198.461007 3.478106 0.362698 3.115407 0.667302 0.158847 0.508456 0.034038 4.179446
200.128747 3.471931 0.357252 3.114679 0.667003 0.157616 0.509388 0.034524 4.173458
201.796486 3.512411 0.351924 3.160486 0.669959 0.156394 0.513566 0.035317 4.217687
203.464226 3.559176 0.346710 3.212466 0.681694 0.155180 0.526514 0.035895 4.276766
205.131966 3.576752 0.341608 3.235144 0.695548 0.153976 0.541572 0.036253 4.308553
206.799705 3.584370 0.336613 3.247757 0.718181 0.152781 0.565401 0.036013 4.338565
208.467445 3.551586 0.331724 3.219862 0.738354 0.151594 0.586760 0.035724 4.325664
210.135184 3.492988 0.326937 3.166050 0.753675 0.150417 0.603258 0.035687 4.282350
211.802924 3.432803 0.322250 3.110552 0.773224 0.149248 0.623976 0.035156 4.241183
213.470663 3.398896 0.317660 3.081236 0.790370 0.148089 0.642281 0.034823 4.224089
215.138403 3.384166 0.313164 3.071001 0.796727 0.146938 0.649788 0.034673 4.215565
216.806143 3.400128 0.308760 3.091368 0.803472 0.145797 0.657675 0.034250 4.237851
218.473882 3.412536 0.304446 3.108090 0.814938 0.144664 0.670274 0.034004 4.261478
220.141622 3.419389 0.300219 3.119170 0.826374 0.143541 0.682833 0.034656 4.280419
221.809361 3.388758 0.296077 3.092681 0.827507 0.142426 0.685080 0.035953 4.252218
223.477101 3.376632 0.292017 3.084614 0.827583 0.141321 0.686262 0.037169 4.241383
225.144840 3.366346 0.288039 3.078307 0.827330 0.140224 0.687106 0.038305 4.231981
226.812580 3.362384 0.284139 3.078245 0.828943 0.139136 0.689807 0.039514 4.230841
228.480319 3.361110 0.280315 3.080796 0.822014 0.138058 0.683957 0.040156 4.223281
230.148059 3.361862 0.276566 3.085297 0.821680 0.136988 0.684693 0.040445 4.223988
231.815799 3.335936 0.272890 3.063046 0.830144 0.135927 0.694218 0.041186 4.207267
233.483538 3.288096 0.269284 3.018812 0.848509 0.134874 0.713635 0.042165 4.178770
235.151278 3.246454 0.265748 2.980705 0.868757 0.133831 0.734926 0.043237 4.158448
236.819017 3.217778 0.262280 2.955498 0.889461 0.132796 0.756665 0.044537 4.151776
238.486757 3.194501 0.258877 2.935624 0.908593 0.131770 0.776823 0.045848 4.148942
240.154496 3.187085 0.255538 2.931547 0.928796 0.130753 0.798043 0.046890 4.162772
241.822236 3.190007 0.252262 2.937745 0.944377 0.129744 0.814633 0.047574 4.181957
243.489975 3.196522 0.249047 2.947475 0.950807 0.128744 0.822063 0.047373 4.194703
245.157715 3.188990 0.245892 2.943098 0.946192 0.127753 0.818440 0.046864 4.182047
246.825455 3.161331 0.242795 2.918536 0.945970 0.126770 0.819200 0.046392 4.153693
248.493194 3.145675 0.239755 2.905920 0.945504 0.125796 0.819708 0.046445 4.137624
250.160934 3.112918 0.236770 2.876147 0.937600 0.124830 0.812770 0.047145 4.097663
251.828673 3.047318 0.233840 2.813478 0.937730 0.123872 0.813858 0.047786 4.032834
253.496413 2.988411 0.230962 2.757448 0.951890 0.122923 0.828967 0.048089 3.988390
255.164152 2.959106 0.228136 2.730970 0.979502 0.121982 0.857520 0.048515 3.987124
256.831892 2.948916 0.225361 2.723556 0.997368 0.121050 0.876318 0.048558 3.994843
258.499631 2.950110 0.222634 2.727475 1.002124 0.120125 0.881998 0.048624 4.000858
260.167371 2.932407 0.219956 2.712451 1.009639 0.119209 0.890429 0.049063 3.991109
261.835111 2.919342 0.217325 2.702017 1.020189 0.118301 0.901888 0.049805 3.989336
263.502850 2.898851 0.214740 2.684111 1.026699 0.117401 0.909298 0.050514 3.976064
265.170590 2.851984 0.212200 2.639784 1.037201 0.116509 0.920692 0.050526 3.939712
266.838329 2.824380 0.209704 2.614676 1.055218 0.115625 0.939593 0.049684 3.929282
268.506069 2.820231 0.207251 2.612980 1.077244 0.114749 0.962495 0.048650 3.946124
270.173808 2.807637 0.204839 2.602797 1.096322 0.113880 0.982442 0.048051 3.952010
271.841548 2.776668 0.202469 2.574198 1.110902 0.113020 0.997882 0.047803 3.935373
273.509287 2.710059 0.200139 2.509920 1.111645 0.112167 0.999478 0.048115 3.869819
275.177027 2.646836 0.197848 2.448988 1.103909 0.111322 0.992588 0.049733 3.800478
276.844767 2.591344 0.195596 2.395748 1.095096 0.110484 0.984612 0.052064 3.738503
278.512506 2.526512 0.193381 2.333131 1.094520 0.109654 0.984866 0.054146 3.675178
280.180246 2.459751 0.191203 2.268549 1.107788 0.108832 0.998956 0.055548 3.623088
281.847985 2.419577 0.189061 2.230517 1.121039 0.108017 1.013023 0.055976 3.596593
283.515725 2.398355 0.186954 2.211402 1.137696 0.107209 1.030487 0.055500 3.591552
285.183464 2.397167 0.184881 2.212286 1.158711 0.106409 1.052302 0.054274 3.610153
286.851204 2.411718 0.182842 2.228876 1.166937 0.105616 1.061321 0.053786 3.632441
288.518943 2.412508 0.180836 2.231672 1.170028 0.104830 1.065198 0.053873 3.636409
290.186683 2.379604 0.178862 2.200742 1.168037 0.104051 1.063986 0.054069 3.601711
291.854423 2.309233 0.176920 2.132313 1.180030 0.103280 1.076751 0.054811 3.544075
293.522162 2.224275 0.175009 2.049266 1.216372 0.102515 1.113857 0.055810 3.496457
295.189902 2.135160 0.173129 1.962032 1.229097 0.101758 1.127339 0.056878 3.421136
296.857641 2.040343 0.171277 1.869066 1.230645 0.101007 1.129637 0.057779 3.328767
298.525381 1.975021 0.169455 1.805566 1.241432 0.100263 1.141168 0.058442 3.274894
300.193120 1.937227 0.167662 1.769566 1.255227 0.099526 1.155701 0.059268 3.251722
301.860860 1.906597 0.165896 1.740701 1.263330 0.098796 1.164534 0.059957 3.229884
303.528600 1.886413 0.164158 1.722256 1.281578 0.098073 1.183505 0.060532 3.228524
305.196339 1.862058 0.162446 1.699612 1.313738 0.097356 1.216383 0.060754 3.236550
306.864079 1.839325 0.160761 1.678565 1.349236 0.096645 1.252591 0.060938 3.249500
308.531818 1.778561 0.159101 1.619460 1.359031 0.095941 1.263090 0.061544 3.199136
310.199558 1.703233 0.157467 1.545766 1.363637 0.095244 1.268393 0.062243 3.129114
311.867297 1.628624 0.155857 1.472767 1.375074 0.094553 1.280522 0.063092 3.066790
313.535037 1.561555 0.154271 1.407284 1.383360 0.093868 1.289491 0.064165 3.009079
315.202776 1.523379 0.152710 1.370670 1.379554 0.093190 1.286365 0.065177 2.968111
316.870516 1.513648 0.151171 1.362477 1.392538 0.092517 1.300020 0.066363 2.972549
318.538256 1.492811 0.149655 1.343155 1.408271 0.091851 1.316420 0.067960 2.969042
320.205995 1.462899 0.148162 1.314737 1.413600 0.091191 1.322408 0.070272 2.946770
321.873735 1.416135 0.146691 1.269445 1.418146 0.090538 1.327609 0.071620 2.905902
323.541474 1.364570 0.145241 1.219330 1.432054 0.089890 1.342164 0.071680 2.868305
325.209214 1.311237 0.143812 1.167425 1.449353 0.089248 1.360105 0.072002 2.832592
326.876953 1.274943 0.142404 1.132539 1.456034 0.088611 1.367422 0.071771 2.802748
328.544693 1.260127 0.141016 1.119111 1.462746 0.087981 1.374764 0.070116 2.792989
330.212432 1.254406 0.139648 1.114757 1.478516 0.087357 1.391160 0.069263 2.802185
331.880172 1.235167 0.138300 1.096867 1.489319 0.086738 1.402582 0.069546 2.794032
333.547912 1.216024 0.136971 1.079053 1.508774 0.086125 1.422649 0.070511 2.795309
335.215651 1.193580 0.135661 1.057919 1.534374 0.085517 1.448857 0.072231 2.800185
336.883391 1.158598 0.134369 1.024229 1.556631 0.084915 1.471716 0.074816 2.790045
338.551130 1.115796 0.133095 0.982701 1.574352 0.084318 1.490034 0.077988 2.768137
340.218870 1.075168 0.131839 0.943329 1.591530 0.083727 1.507803 0.080399 2.747098
341.886609 1.034265 0.130601 0.903664 1.610925 0.083142 1.527783 0.081981 2.727171
343.554349 0.995984 0.129380 0.866605 1.623500 0.082561 1.540939 0.081985 2.701470
345.222088 0.960308 0.128175 0.832133 1.619256 0.081986 1.537269 0.079446 2.659010
346.889828 0.943474 0.126988 0.816487 1.622154 0.081416 1.540738 0.077174 2.642802
348.557568 0.933941 0.125816 0.808125 1.625612 0.080851 1.544761 0.076789 2.636343
350.225307 0.918550 0.124660 0.793889 1.618471 0.080292 1.538179 0.076944 2.613964
351.893047 0.891553 0.123520 0.768033 1.629919 0.079737 1.550182 0.077620 2.599093
353.560786 0.858110 0.122396 0.735714 1.664779 0.079188 1.585591 0.079321 2.602211
355.228526 0.825696 0.121286 0.704409 1.705967 0.078643 1.627324 0.081494 2.613157
356.896265 0.805700 0.120192 0.685508 1.733065 0.078104 1.654961 0.083255 2.622020
358.564005 0.792414 0.119112 0.673303 1.738023 0.077569 1.660454 0.084353 2.614791
360.231744 0.782147 0.118046 0.664101 1.735041 0.077039 1.658002 0.085948 2.603137
361.899484 0.770007 0.116995 0.653012 1.722678 0.076514 1.646164 0.086632 2.579316
363.567224 0.747933 0.115957 0.631976 1.703106 0.075994 1.627112 0.086021 2.537060
365.234963 0.714448 0.114933 0.599515 1.703080 0.075478 1.627602 0.085145 2.502673
366.902703 0.678549 0.113922 0.564627 1.722117 0.074967 1.647150 0.084655 2.485321
368.570442 0.651345 0.112924 0.538420 1.767816 0.074461 1.693356 0.084346 2.503506
370.238182 0.638426 0.111940 0.526487 1.824429 0.073959 1.750470 0.083747 2.546603
371.905921 0.627389 0.110968 0.516421 1.871976 0.073461 1.798515 0.082627 2.581992
373.573661 0.616490 0.110008 0.506482 1.891046 0.072968 1.818078 0.081571 2.589107
375.241400 0.612382 0.109061 0.503321 1.871310 0.072480 1.798830 0.080307 2.563999
376.909140 0.604203 0.108126 0.496078 1.840254 0.071996 1.768258 0.080286 2.524744
378.576880 0.594319 0.107202 0.487117 1.828112 0.071516 1.756596 0.082298 2.504729
380.244619 0.586734 0.106291 0.480444 1.827027 0.071040 1.755987 0.086182 2.499943
381.912359 0.581520 0.105390 0.476130 1.845311 0.070569 1.774742 0.090310 2.517141
383.580098 0.574574 0.104501 0.470073 1.876896 0.070102 1.806794 0.092323 2.543794
385.247838 0.568089 0.103624 0.464466 1.907144 0.069639 1.837505 0.093281 2.568515
386.915577 0.559715 0.102757 0.456959 1.901640 0.069180 1.832460 0.094391 2.555747
388.583317 0.549704 0.101900 0.447804 1.886695 0.068725 1.817970 0.094555 2.530954
390.251057 0.538145 0.101055 0.437090 1.895243 0.068274 1.826968 0.093420 2.526808
391.918796 0.526342 0.100220 0.426122 1.938890 0.067828 1.871062 0.092938 2.558170
393.586536 0.514081 0.099395 0.414686 1.986578 0.067385 1.919193 0.093120 2.593779
395.254275 0.504721 0.098580 0.406142 2.024857 0.066946 1.957911 0.093180 2.622758
