# Column 0: Wavenumber (cm^-1)
# Column 1: Translational
# Column 2: Translational (g)
# Column 3: Translational (s)
# Column 4: Rotational
# Column 5: Rotational (g)
# Column 6: Rotational (s)
# Column 7: Vibrational
# Column 8: Total

0.000000 341.720840 341.720840 0.000000 52.828667 52.828667 0.000000 0.018149 394.567655
0.166779 338.569261 338.569261 0.000000 48.359275 52.815797 0.000000 0.018618 386.947154
0.333558 320.509758 320.509758 0.000000 46.942450 52.777227 0.000000 0.018921 367.471129
0.500337 303.281098 303.281098 0.000000 47.140224 52.713067 0.000000 0.018681 350.440003
0.667116 294.828380 294.828380 0.000000 48.456674 52.623505 0.000000 0.018172 343.303226
0.833895 289.728701 289.728701 0.000000 49.376527 52.508800 0.000000 0.018044 339.123271
1.000674 274.229739 274.229739 0.000000 50.549632 52.369282 0.000000 0.018413 324.797784
1.167453 251.712380 251.712380 0.000000 50.341932 52.205350 0.000000 0.018392 302.072704
1.334232 232.659617 232.659617 0.000000 49.007618 52.017469 0.000000 0.018107 281.685342
1.501011 218.689296 218.689296 0.000000 47.831900 51.806165 0.000000 0.018105 266.539301
1.667790 204.022743 204.022743 0.000000 46.188249 51.572024 0.000000 0.018198 250.229190
1.834569 188.396179 188.396179 0.000000 44.808914 51.315687 0.000000 0.017937 233.223030
2.001348 176.074359 176.074359 0.000000 44.857214 51.037845 0.000000 0.017858 220.949431
2.168126 164.752866 164.752866 0.000000 45.661961 50.739235 0.000000 0.018262 210.433089
2.334905 153.224095 153.224095 0.000000 44.999069 50.420636 0.000000 0.018636 198.241799
2.501684 140.416551 140.416551 0.000000 43.859983 50.082864 0.000000 0.018649 184.295184
2.668463 128.453462 128.453462 0.000000 43.102268 49.726767 0.000000 0.018567 171.574297
2.835242 118.143972 118.143972 0.000000 42.275432 49.353218 0.000000 0.018587 160.437991
3.002021 110.903751 110.903751 0.000000 41.631757 48.963113 0.000000 0.018509 152.554017
3.168800 104.165743 104.165743 0.000000 41.280000 48.557368 0.000000 0.018515 145.464258
3.335579 96.504197 96.504197 0.000000 39.947730 48.136907 0.000000 0.018730 136.470658
3.502358 90.264716 90.264716 0.000000 38.183467 47.702664 0.000000 0.019120 128.467303
3.669137 85.694455 85.694455 0.000000 36.977340 47.255577 0.000000 0.019208 122.691003
3.835916 82.473251 82.473251 0.000000 36.763502 46.796582 0.000000 0.018845 119.255598
4.002695 79.346168 79.346168 0.000000 36.667934 46.326611 0.000000 0.018451 116.032552
4.169474 74.385460 74.385460 0.000000 35.882558 45.846589 0.000000 0.018373 110.286391
4.336253 69.485245 69.485245 0.000000 34.156137 45.357426 0.000000 0.018537 103.659918
4.503032 66.939828 66.939828 0.000000 33.182833 44.860019 0.000000 0.018569 100.141231
4.669811 65.542753 65.542753 0.000000 33.471089 44.355247 0.000000 0.018553 99.032395
4.836590 62.693200 62.693200 0.000000 33.381158 43.843968 0.000000 0.018747 96.093104
5.003369 59.618356 59.618356 0.000000 32.626856 43.327018 0.000000 0.018878 92.264091
5.170148 56.588733 56.588733 0.000000 32.272624 42.805207 0.000000 0.018743 88.880100
5.336927 52.517450 52.517450 0.000000 32.414136 42.279319 0.000000 0.018501 84.950087
5.503706 48.682016 48.682016 0.000000 31.446854 41.750111 0.000000 0.018468 80.147338
5.670485 47.450633 47.450633 0.000000 29.735710 41.218308 0.000000 0.018554 77.204896
5.837264 47.589825 47.589825 0.000000 28.922409 40.684608 0.000000 0.018635 76.530869
6.004043 45.983684 45.983684 0.000000 28.934938 40.149676 0.000000 0.019054 74.937676
6.170821 43.754431 43.754431 0.000000 28.208831 39.614147 0.000000 0.019267 71.982528
6.337600 42.318171 42.318171 0.000000 26.769196 39.078623 0.000000 0.019071 69.106438
6.504379 41.407310 41.407310 0.000000 25.903015 38.543675 0.000000 0.018876 67.329200
6.671158 40.211721 40.211721 0.000000 25.741058 38.009844 0.000000 0.018924 65.971702
6.837937 38.757203 38.757203 0.000000 26.037532 37.477636 0.000000 0.018863 64.813597
7.004716 37.153318 37.153318 0.000000 26.399954 36.947529 0.000000 0.018850 63.572122
7.171495 36.167074 36.167074 0.000000 26.403914 36.419969 0.000000 0.018913 62.589901
7.338274 35.842164 35.842164 0.000000 25.859627 35.895372 0.000000 0.018920 61.720711
7.505053 35.351993 35.351993 0.000000 25.101836 35.374127 0.000000 0.018954 60.472783
7.671832 34.180231 34.180231 0.000000 24.187183 34.856591 0.000000 0.019067 58.386481
7.838611 33.094086 32.963822 0.130264 23.728474 34.343097 0.000000 0.019080 56.841640
8.005390 31.709979 31.709979 0.000000 23.626753 33.833950 0.000000 0.019022 55.355754
8.172169 30.839153 30.563579 0.275573 23.504129 33.329428 0.000000 0.019040 54.362321
8.338948 30.375772 29.457595 0.918176 22.917419 32.829785 0.000000 0.018766 53.311957
8.505727 29.793687 28.408817 1.384870 21.973875 32.335254 0.000000 0.018583 51.786145
8.672506 29.026593 27.413487 1.613106 21.243772 31.846042 0.000000 0.018649 50.289015
8.839285 28.640188 26.468145 2.172043 20.902303 31.362337 0.000000 0.019020 49.561511
9.006064 28.402595 25.569593 2.833002 20.798033 30.884304 0.000000 0.019111 49.219739
9.172843 28.010637 24.714879 3.295759 20.619305 30.412090 0.000000 0.019234 48.649176
9.339622 27.742547 23.901272 3.841275 20.261370 29.945824 0.000000 0.019443 48.023359
9.506401 27.257393 23.126245 4.131148 19.855519 29.485617 0.000000 0.019344 47.132256
9.673180 26.378915 22.387457 3.991457 19.378429 29.031564 0.000000 0.018880 45.776224
9.839959 25.403063 21.682737 3.720326 19.120250 28.583744 0.000000 0.018623 44.541936
10.006738 24.879948 21.010069 3.869879 18.924537 28.142222 0.000000 0.018753 43.823238
10.173516 24.432867 20.367582 4.065285 18.746908 27.707049 0.000000 0.018882 43.198656
10.340295 24.039162 19.753535 4.285627 18.606137 27.278264 0.000000 0.018899 42.664198
10.507074 23.411182 19.166309 4.244873 18.552709 26.855893 0.000000 0.018850 41.982742
10.673853 22.945739 18.604395 4.341344 18.252284 26.439951 0.000000 0.018813 41.216835
10.840632 22.733083 18.066387 4.666696 17.850327 26.030446 0.000000 0.019185 40.602595
11.007411 22.426471 17.550973 4.875497 17.507010 25.627371 0.000000 0.019564 39.953045
11.174190 21.920479 17.056929 4.863550 17.240445 25.230716 0.000000 0.019706 39.180630
11.340969 21.716227 16.583110 5.133117 17.073948 24.840459 0.000000 0.019399 38.809573
11.507748 21.869639 16.128445 5.741194 16.841137 24.456572 0.000000 0.019195 38.729971
11.674527 22.067118 15.691934 6.375184 16.479348 24.079019 0.000000 0.019215 38.565681
11.841306 22.002073 15.272637 6.729437 16.156163 23.707761 0.000000 0.019241 38.177477
12.008085 21.487221 14.869675 6.617546 16.127541 23.342749 0.000000 0.019091 37.633853
12.174864 21.070569 14.482224 6.588345 15.948815 22.983933 0.000000 0.018893 37.038277
12.341643 20.727138 14.109509 6.617629 15.494978 22.631255 0.000000 0.018987 36.241102
12.508422 20.277533 13.750803 6.526729 15.162991 22.284655 0.000000 0.019258 35.459781
12.675201 19.412554 13.405423 6.007131 14.934893 21.944068 0.000000 0.019301 34.366749
12.841980 19.088464 13.072725 6.015739 14.450414 21.609426 0.000000 0.018978 33.557856
13.008759 18.964756 12.752104 6.212652 13.952874 21.280659 0.000000 0.018850 32.936481
13.175538 18.581133 12.442990 6.138143 13.932625 20.957694 0.000000 0.018979 32.532737
13.342317 18.278345 12.144847 6.133498 14.314662 20.640454 0.000000 0.019113 32.612120
13.509096 18.442139 11.857166 6.584973 14.530930 20.328862 0.000000 0.019111 32.992179
13.675875 18.822331 11.579470 7.242861 14.317189 20.022839 0.000000 0.019195 33.158715
13.842654 18.911444 11.311308 7.600136 13.822562 19.722304 0.000000 0.019308 32.753314
14.009433 18.761207 11.052253 7.708955 13.227126 19.427175 0.000000 0.019494 32.007827
14.176212 18.453375 10.801901 7.651473 13.133810 19.137369 0.000000 0.019647 31.606831
14.342990 18.013320 10.559872 7.453448 13.448455 18.852804 0.000000 0.019539 31.481314
14.509769 17.370541 10.325805 7.044736 13.641780 18.573394 0.000000 0.019334 31.031654
14.676548 16.985001 10.099358 6.885644 13.367085 18.299056 0.000000 0.019379 30.371465
14.843327 16.887811 9.880206 7.007605 12.735037 18.029705 0.000000 0.019669 29.642517
15.010106 16.758500 9.668043 7.090457 12.263937 17.765256 0.000000 0.019863 29.042300
15.176885 16.427658 9.462577 6.965080 12.370788 17.505626 0.000000 0.019815 28.818260
15.343664 16.241548 9.263533 6.978015 12.828959 17.250729 0.000000 0.019703 29.090210
15.510443 15.902032 9.070648 6.831384 12.850036 17.000483 0.000000 0.019507 28.771574
15.677222 15.569455 8.883673 6.685783 12.596721 16.754802 0.000000 0.019262 28.185439
15.844001 15.543607 8.702370 6.841237 12.489545 16.513606 0.000000 0.019377 28.052529
16.010780 15.580716 8.526515 7.054201 12.339491 16.276811 0.000000 0.019594 27.939801
16.177559 15.131527 8.355894 6.775634 12.089859 16.044336 0.000000 0.019753 27.241139
16.344338 14.694892 8.190301 6.504590 11.880236 15.816100 0.000000 0.019693 26.594821
16.511117 14.496387 8.029545 6.466842 11.673695 15.592024 0.000000 0.019770 26.189852
16.677896 14.381724 7.873438 6.508286 11.504797 15.372028 0.000000 0.019677 25.906198
16.844675 13.939451 7.721806 6.217644 11.495719 15.156034 0.000000 0.019680 25.454849
17.011454 13.769331 7.574480 6.194851 11.284399 14.943966 0.000000 0.019594 25.073324
17.178233 13.926324 7.431300 6.495025 10.959213 14.735747 0.000000 0.019379 24.904916
17.345012 13.937600 7.292112 6.645488 10.987049 14.531303 0.000000 0.019389 24.944038
17.511791 13.445545 7.156771 6.288774 11.288303 14.330559 0.000000 0.019625 24.753473
17.678570 13.034572 7.025138 6.009434 11.182120 14.133443 0.000000 0.019673 24.236365
17.845349 13.045205 6.897078 6.148127 10.752742 13.939884 0.000000 0.019345 23.817293
18.012128 13.206385 6.772465 6.433919 10.497216 13.749810 0.000000 0.019252 23.722853
18.178907 13.135482 6.651178 6.484304 10.457415 13.563152 0.000000 0.019487 23.612384
18.345685 12.859599 6.533098 6.326500 10.378913 13.379843 0.000000 0.019638 23.258150
18.512464 12.720771 6.418116 6.302655 10.400196 13.199816 0.000000 0.019721 23.140687
18.679243 12.673505 6.306124 6.367381 10.617610 13.023004 0.000000 0.019863 23.310978
18.846022 12.375403 6.197020 6.178383 10.522594 12.849343 0.000000 0.019860 22.917857
19.012801 12.115137 6.090707 6.024431 10.091439 12.678769 0.000000 0.019665 22.226242
19.179580 12.156069 5.987090 6.168979 9.753288 12.511221 0.000000 0.019639 21.928996
19.346359 12.347741 5.886079 6.461662 9.796876 12.346636 0.000000 0.019905 22.164522
19.513138 12.362758 5.787589 6.575169 9.878401 12.184956 0.000000 0.020382 22.261542
19.679917 12.162003 5.691537 6.470466 9.864937 12.026122 0.000000 0.020876 22.047816
19.846696 11.885965 5.597843 6.288121 9.983436 11.870075 0.000000 0.020841 21.890241
20.013475 11.383947 5.506432 5.877515 10.026292 11.716759 0.000000 0.020236 21.430476
20.180254 10.839654 5.417229 5.422425 9.811072 11.566119 0.000000 0.020002 20.670728
20.347033 10.684044 5.330166 5.353878 9.670894 11.418100 0.000000 0.020144 20.375081
20.513812 11.044117 5.245174 5.798944 9.743223 11.272650 0.000000 0.020268 20.807608
20.680591 11.305457 5.162188 6.143268 9.611665 11.129716 0.000000 0.020298 20.937419
20.847370 10.996207 5.081147 5.915060 9.337244 10.989248 0.000000 0.020386 20.353837
21.014149 10.590463 5.001989 5.588473 9.235610 10.851194 0.000000 0.020459 19.846532
21.180928 10.286011 4.924659 5.361352 9.256168 10.715507 0.000000 0.020508 19.562687
21.347707 10.282786 4.849099 5.433687 9.168285 10.582138 0.000000 0.020415 19.471486
21.514486 10.450838 4.775257 5.675581 9.058636 10.451041 0.000000 0.020204 19.529678
21.681265 10.339570 4.703082 5.636488 9.055434 10.322169 0.000000 0.020289 19.415293
21.848044 9.911021 4.632523 5.278499 9.168992 10.195478 0.000000 0.020528 19.100541
22.014823 9.602174 4.563533 5.038641 9.211521 10.070923 0.000000 0.020590 18.834285
22.181602 9.595983 4.496065 5.099917 9.127442 9.948461 0.000000 0.020532 18.743957
22.348380 9.558656 4.430077 5.128579 9.063445 9.828051 0.000000 0.020429 18.642530
22.515159 9.343411 4.365525 4.977886 8.965698 9.709652 0.000000 0.019999 18.329108
22.681938 9.225014 4.302367 4.922646 8.619789 9.593221 0.000000 0.019702 17.864504
22.848717 9.176594 4.240565 4.936029 8.468899 9.478722 0.000000 0.019776 17.665269
23.015496 9.318062 4.180079 5.137983 8.520584 9.366113 0.000000 0.020305 17.858951
23.182275 9.336741 4.120873 5.215868 8.674283 9.255359 0.000000 0.020804 18.031828
23.349054 9.081215 4.062911 5.018304 8.535998 9.146422 0.000000 0.021006 17.638219
23.515833 8.652206 4.006159 4.646047 8.332112 9.039265 0.000000 0.020971 17.005289
23.682612 8.366616 3.950583 4.416033 8.120086 8.933854 0.000000 0.020746 16.507447
23.849391 8.233620 3.896151 4.337470 7.948287 8.830154 0.000000 0.020548 16.202455
24.016170 8.244964 3.842832 4.402132 7.758666 8.728131 0.000000 0.020515 16.024144
24.182949 8.292632 3.790596 4.502036 7.652458 8.627751 0.000000 0.020499 15.965589
24.349728 8.132784 3.739414 4.393370 7.779453 8.528983 0.000000 0.020557 15.932794
24.516507 7.750636 3.689258 4.061378 8.015597 8.431795 0.000000 0.020710 15.786943
24.683286 7.682413 3.640101 4.042312 8.151678 8.336156 0.000000 0.020700 15.854790
24.850065 7.831802 3.591916 4.239885 8.041496 8.242035 0.000000 0.020396 15.893693
25.016844 7.792607 3.544679 4.247928 7.775283 8.149404 0.000000 0.020246 15.588136
25.183623 7.499383 3.498364 4.001018 7.742136 8.058232 0.000000 0.020429 15.261948
25.350402 7.417586 3.452948 3.964638 7.956575 7.968492 0.000000 0.020772 15.394933
25.517181 7.454463 3.408408 4.046055 8.189752 7.880156 0.309596 0.020962 15.665176
25.683960 7.447378 3.364721 4.082657 8.184025 7.793196 0.390828 0.021065 15.652468
25.850739 7.289004 3.321866 3.967138 7.971249 7.707587 0.263662 0.020898 15.281150
26.017518 7.207122 3.279822 3.927300 7.561141 7.623302 0.000000 0.020996 14.789259
26.184297 7.082380 3.238568 3.843811 7.263897 7.540316 0.000000 0.020745 14.367021
26.351076 6.897209 3.198086 3.699123 7.245596 7.458604 0.000000 0.020607 14.163412
26.517854 6.797279 3.158356 3.638923 7.239200 7.378142 0.000000 0.020569 14.057048
26.684633 6.892537 3.119359 3.773178 7.192448 7.298906 0.000000 0.020620 14.105604
26.851412 6.830683 3.081078 3.749605 7.223205 7.220872 0.002332 0.020680 14.074567
27.018191 6.447716 3.043495 3.404222 7.312807 7.144019 0.168788 0.021011 13.781534
27.184970 6.136521 3.006593 3.129928 7.292521 7.068323 0.224197 0.021203 13.450245
27.351749 6.152571 2.970357 3.182214 7.104757 6.993764 0.110993 0.021059 13.278387
27.518528 6.242931 2.934770 3.308161 6.964685 6.920319 0.044366 0.020844 13.228460
27.685307 6.242549 2.899817 3.342732 7.022959 6.847968 0.174991 0.020944 13.286452
27.852086 6.136991 2.865483 3.271508 7.152632 6.776691 0.375941 0.020991 13.310614
28.018865 6.036481 2.831754 3.204728 7.204127 6.706467 0.497660 0.021100 13.261709
28.185644 5.880978 2.798614 3.082363 7.142882 6.637277 0.505605 0.020976 13.044836
28.352423 5.877307 2.766052 3.111255 7.169426 6.569103 0.600323 0.020965 13.067697
28.519202 5.884447 2.734053 3.150393 7.101906 6.501924 0.599982 0.021212 13.007564
28.685981 5.802215 2.702605 3.099610 7.001697 6.435724 0.565974 0.021588 12.825500
28.852760 5.727100 2.671695 3.055405 6.974733 6.370483 0.604249 0.021736 12.723568
29.019539 5.683575 2.641311 3.042264 6.965838 6.306185 0.659653 0.021549 12.670962
29.186318 5.600421 2.611441 2.988980 6.912745 6.242813 0.669933 0.021574 12.534741
29.353097 5.415393 2.582073 2.833320 6.771552 6.180349 0.591203 0.021805 12.208751
29.519876 5.358240 2.553197 2.805043 6.679487 6.118777 0.560710 0.022055 12.059783
29.686655 5.386221 2.524801 2.861419 6.510940 6.058082 0.452858 0.021830 11.918990
29.853434 5.389964 2.496876 2.893089 6.440676 5.998247 0.442429 0.021670 11.852311
30.020213 5.262250 2.469409 2.792840 6.484079 5.939257 0.544822 0.021829 11.768159
30.186992 5.105543 2.442393 2.663149 6.492703 5.881097 0.611606 0.021966 11.620211
30.353771 5.033074 2.415817 2.617258 6.355483 5.823752 0.531731 0.022003 11.410560
30.520549 5.001364 2.389670 2.611694 6.239167 5.767207 0.471960 0.022087 11.262618
30.687328 4.944166 2.363946 2.580220 6.242532 5.711449 0.531083 0.022153 11.208851
30.854107 4.971653 2.338633 2.633020 6.290189 5.656464 0.633724 0.022089 11.283931
31.020886 4.974867 2.313724 2.661143 6.211368 5.602238 0.609130 0.022466 11.208701
31.187665 4.823658 2.289209 2.534449 6.116746 5.548758 0.567988 0.022836 10.963241
31.354444 4.651213 2.265082 2.386131 6.202788 5.496010 0.706777 0.022719 10.876720
31.521223 4.643591 2.241333 2.402258 6.339242 5.443983 0.895259 0.022557 11.005390
31.688002 4.711547 2.217955 2.493593 6.268561 5.392663 0.875898 0.023085 11.003193
31.854781 4.578566 2.194940 2.383626 6.206194 5.342038 0.864156 0.023205 10.807964
32.021560 4.400922 2.172280 2.228642 6.281389 5.292096 0.989293 0.022509 10.704820
32.188339 4.314886 2.149969 2.164916 6.274134 5.242826 1.031308 0.021990 10.611010
32.355118 4.337435 2.127999 2.209435 6.035498 5.194216 0.841282 0.022235 10.395169
32.521897 4.420975 2.106364 2.314611 5.922900 5.146255 0.776644 0.022455 10.366330
32.688676 4.426334 2.085056 2.341278 5.955099 5.098932 0.856167 0.022530 10.403963
32.855455 4.330829 2.064069 2.266759 5.995946 5.052236 0.943710 0.022703 10.349477
33.022234 4.169955 2.043397 2.126558 5.971712 5.006156 0.965556 0.022729 10.164395
33.189013 4.058791 2.023033 2.035758 5.972633 4.960681 1.011951 0.022529 10.053953
33.355792 3.965875 2.002972 1.962903 5.903412 4.915803 0.987609 0.022733 9.892020
33.522571 3.941179 1.983207 1.957972 5.731296 4.871511 0.859786 0.022965 9.695440
33.689350 3.939771 1.963732 1.976038 5.679526 4.827794 0.851732 0.022997 9.642293
33.856129 3.906126 1.944542 1.961584 5.785910 4.784644 1.001266 0.022951 9.714987
34.022908 3.867956 1.925632 1.942324 5.789074 4.742051 1.047023 0.023046 9.680076
34.189687 3.863629 1.906996 1.956633 5.682086 4.700006 0.982080 0.022803 9.568519
34.356466 3.879756 1.888628 1.991127 5.731660 4.658500 1.073161 0.022410 9.633826
34.523244 3.902299 1.870525 2.031774 5.931922 4.617523 1.314399 0.022318 9.856539
34.690023 3.896929 1.852679 2.044249 5.928666 4.577068 1.351598 0.022763 9.848358
34.856802 3.803589 1.835088 1.968501 5.739057 4.537126 1.201931 0.022956 9.565602
35.023581 3.702360 1.817745 1.884615 5.592681 4.497688 1.094993 0.022667 9.317708
35.190360 3.654095 1.800647 1.853448 5.453219 4.458747 0.994472 0.022428 9.129742
35.357139 3.692940 1.783788 1.909152 5.371892 4.420294 0.951598 0.022792 9.087624
35.523918 3.700416 1.767164 1.933251 5.390458 4.382321 1.008137 0.023341 9.114214
35.690697 3.605088 1.750772 1.854316 5.516588 4.344821 1.171767 0.023351 9.145027
35.857476 3.458624 1.734606 1.724018 5.593373 4.307786 1.285587 0.023162 9.075159
36.024255 3.368207 1.718663 1.649545 5.613707 4.271209 1.342499 0.023261 9.005175
36.191034 3.383472 1.702938 1.680534 5.560205 4.235082 1.325123 0.023995 8.967672
36.357813 3.422168 1.687427 1.734741 5.471090 4.199399 1.271691 0.024255 8.917513
36.524592 3.422786 1.672127 1.750659 5.373337 4.164151 1.209186 0.023938 8.820061
36.691371 3.344622 1.657034 1.687588 5.350725 4.129334 1.221391 0.023545 8.718892
36.858150 3.265266 1.642144 1.623121 5.435346 4.094939 1.340407 0.023302 8.723914
37.024929 3.179973 1.627454 1.552519 5.526103 4.060960 1.465143 0.023183 8.729259
37.191708 3.187379 1.612959 1.574420 5.491192 4.027391 1.463801 0.023699 8.702270
37.358487 3.248144 1.598657 1.649487 5.329708 3.994225 1.335483 0.024088 8.601940
37.525266 3.268574 1.584544 1.684030 5.216851 3.961456 1.255394 0.023601 8.509026
37.692045 3.163761 1.570617 1.593144 5.275191 3.929078 1.346112 0.023084 8.462036
37.858824 3.053498 1.556872 1.496625 5.466926 3.897085 1.569841 0.023249 8.543674
38.025603 3.035548 1.543307 1.492241 5.532012 3.865471 1.666541 0.023462 8.591022
38.192382 3.078130 1.529918 1.548212 5.408305 3.834230 1.574075 0.023298 8.509733
38.359161 3.100504 1.516702 1.583802 5.271959 3.803356 1.468603 0.023381 8.395844
38.525940 3.042188 1.503657 1.538531 5.193538 3.772845 1.420693 0.023410 8.259136
