# Column 0: Wavenumber (cm^-1)
# Column 1: Translational
# Column 2: Translational (g)
# Column 3: Translational (s)
# Column 4: Rotational
# Column 5: Rotational (g)
# Column 6: Rotational (s)
# Column 7: Vibrational
# Column 8: Total

0.000000 5.320446 5.320446 0.000000 0.334191 0.334191 0.000000 0.023518 5.678155
0.333551 5.222129 5.222129 0.000000 0.320828 0.334190 0.000000 0.024222 5.567179
0.667102 5.119831 5.119831 0.000000 0.316297 0.334188 0.000000 0.024642 5.460770
1.000654 5.026854 5.026854 0.000000 0.318453 0.334183 0.000000 0.024774 5.370082
1.334205 4.956504 4.956504 0.000000 0.325153 0.334176 0.000000 0.024613 5.306269
1.667756 4.936583 4.936583 0.000000 0.334920 0.334168 0.000752 0.024066 5.295569
2.001307 4.980696 4.980696 0.000000 0.344016 0.334158 0.009858 0.023129 5.347841
2.334859 5.035814 5.035814 0.000000 0.348041 0.334146 0.013895 0.022122 5.405977
2.668410 5.076844 5.076844 0.000000 0.343456 0.334132 0.009324 0.021499 5.441799
3.001961 5.181222 5.181222 0.000000 0.337867 0.334116 0.003750 0.021195 5.540284
3.335512 5.365337 5.300001 0.065336 0.333999 0.334099 0.000000 0.021241 5.720577
3.669064 5.535964 5.295728 0.240236 0.329924 0.334079 0.000000 0.021535 5.887423
4.002615 5.678127 5.291056 0.387072 0.327678 0.334058 0.000000 0.021622 6.027428
4.336166 5.787801 5.285986 0.501815 0.327568 0.334035 0.000000 0.021368 6.136736
4.669717 5.837605 5.280522 0.557083 0.324411 0.334010 0.000000 0.020732 6.182749
5.003269 5.833086 5.274666 0.558421 0.321819 0.333983 0.000000 0.020011 6.174917
5.336820 5.781598 5.268420 0.513178 0.320655 0.333955 0.000000 0.019530 6.121783
5.670371 5.728418 5.261787 0.466631 0.322697 0.333924 0.000000 0.019155 6.070270
6.003922 5.716386 5.254771 0.461614 0.329607 0.333892 0.000000 0.018984 6.064976
6.337474 5.686840 5.247374 0.439466 0.337212 0.333858 0.003353 0.019121 6.043173
6.671025 5.661536 5.239600 0.421936 0.341668 0.333822 0.007846 0.019160 6.022364
7.004576 5.676821 5.231452 0.445369 0.342615 0.333784 0.008831 0.019005 6.038441
7.338127 5.715544 5.222934 0.492610 0.336198 0.333745 0.002453 0.018929 6.070671
7.671679 5.814277 5.214049 0.600228 0.328963 0.333703 0.000000 0.019136 6.162375
8.005230 5.964474 5.204801 0.759672 0.323683 0.333660 0.000000 0.019520 6.307676
8.338781 6.091289 5.195195 0.896094 0.321440 0.333615 0.000000 0.019759 6.432487
8.672332 6.148549 5.185234 0.963314 0.323747 0.333568 0.000000 0.019847 6.492142
9.005884 6.185019 5.174924 1.010096 0.327536 0.333519 0.000000 0.019900 6.532454
9.339435 6.223623 5.164267 1.059356 0.332771 0.333469 0.000000 0.019708 6.576102
9.672986 6.322924 5.153269 1.169655 0.340296 0.333416 0.006880 0.019412 6.682631
10.006537 6.394380 5.141934 1.252446 0.342095 0.333362 0.008733 0.019270 6.755745
10.340089 6.456078 5.130267 1.325811 0.343679 0.333306 0.010373 0.019392 6.819149
10.673640 6.560883 5.118274 1.442609 0.347094 0.333248 0.013847 0.019777 6.927754
11.007191 6.628873 5.105958 1.522916 0.347952 0.333188 0.014764 0.019903 6.996728
11.340742 6.652003 5.093325 1.558678 0.344280 0.333127 0.011153 0.019775 7.016058
11.674294 6.698974 5.080380 1.618594 0.340810 0.333063 0.007746 0.019577 7.059360
12.007845 6.747285 5.067128 1.680156 0.339432 0.332998 0.006433 0.019254 7.105971
12.341396 6.769333 5.053576 1.715757 0.338356 0.332931 0.005424 0.018906 7.126595
12.674947 6.679790 5.039727 1.640064 0.336518 0.332863 0.003655 0.018489 7.034797
13.008499 6.509212 5.025587 1.483625 0.337656 0.332792 0.004864 0.018119 6.864987
13.342050 6.358063 5.011163 1.346901 0.339874 0.332720 0.007154 0.017893 6.715830
13.675601 6.410484 4.996459 1.414025 0.340111 0.332645 0.007465 0.017636 6.768231
14.009152 6.598639 4.981481 1.617158 0.341755 0.332569 0.009186 0.017421 6.957815
14.342704 6.842483 4.966235 1.876249 0.347886 0.332492 0.015394 0.017375 7.207744
14.676255 7.157440 4.950726 2.206714 0.352839 0.332412 0.020426 0.017413 7.527692
15.009806 7.433105 4.934961 2.498143 0.353296 0.332331 0.020965 0.017533 7.803933
15.343357 7.524552 4.918946 2.605607 0.354732 0.332248 0.022485 0.017828 7.897113
15.676909 7.433743 4.902685 2.531058 0.355520 0.332163 0.023358 0.018058 7.807321
16.010460 7.329849 4.886185 2.443664 0.353375 0.332076 0.021299 0.018222 7.701446
16.344011 7.351897 4.869452 2.482445 0.352429 0.331988 0.020441 0.018443 7.722769
16.677562 7.374449 4.852492 2.521957 0.353146 0.331897 0.021249 0.018588 7.746183
17.011114 7.412859 4.835311 2.577548 0.353919 0.331805 0.022113 0.018518 7.785296
17.344665 7.445199 4.817914 2.627285 0.351248 0.331712 0.019537 0.018347 7.814794
17.678216 7.469199 4.800308 2.668891 0.347990 0.331616 0.016373 0.018148 7.835336
18.011767 7.407264 4.782498 2.624766 0.347574 0.331519 0.016055 0.018077 7.772916
18.345319 7.351420 4.764491 2.586929 0.347462 0.331420 0.016042 0.017956 7.716838
18.678870 7.426343 4.746292 2.680052 0.346671 0.331319 0.015352 0.017998 7.791012
19.012421 7.587448 4.727907 2.859541 0.347083 0.331216 0.015867 0.018304 7.952836
19.345972 7.756803 4.709343 3.047460 0.350249 0.331112 0.019137 0.018603 8.125654
19.679524 7.892949 4.690605 3.202344 0.351762 0.331006 0.020756 0.018607 8.263319
20.013075 7.902450 4.671699 3.230751 0.353509 0.330898 0.022611 0.018545 8.274503
20.346626 7.857075 4.652631 3.204444 0.356506 0.330789 0.025717 0.018446 8.232027
20.680177 7.821780 4.633406 3.188374 0.359904 0.330677 0.029227 0.018134 8.199818
21.013729 7.840149 4.614031 3.226118 0.363583 0.330564 0.033019 0.017797 8.221529
21.347280 7.917758 4.594512 3.323247 0.365223 0.330450 0.034773 0.017659 8.300641
21.680831 8.008443 4.574853 3.433590 0.365575 0.330333 0.035242 0.017807 8.391825
22.014382 8.014852 4.555061 3.459792 0.368995 0.330215 0.038780 0.018211 8.402059
22.347934 8.004755 4.535141 3.469614 0.365684 0.330095 0.035589 0.018465 8.388904
22.681485 8.024563 4.515099 3.509464 0.361405 0.329973 0.031431 0.018559 8.404527
23.015036 8.034544 4.494940 3.539604 0.360546 0.329850 0.030696 0.018566 8.413656
23.348587 8.074313 4.474670 3.599643 0.364680 0.329725 0.034955 0.018487 8.457480
23.682139 8.052229 4.454295 3.597934 0.367472 0.329598 0.037874 0.018377 8.438077
24.015690 8.025069 4.433819 3.591250 0.369595 0.329470 0.040125 0.018442 8.413106
24.349241 8.032306 4.413248 3.619058 0.376988 0.329340 0.047648 0.018635 8.427929
24.682792 8.003060 4.392587 3.610473 0.380803 0.329208 0.051595 0.018870 8.402734
25.016344 8.003420 4.371842 3.631578 0.374602 0.329074 0.045528 0.018968 8.396990
25.349895 8.055008 4.351017 3.703991 0.368182 0.328939 0.039243 0.018916 8.442106
25.683446 8.011737 4.330118 3.681619 0.364944 0.328802 0.036142 0.018840 8.395521
26.016997 7.932587 4.309149 3.623438 0.363596 0.328664 0.034933 0.018995 8.315179
26.350549 7.894237 4.288116 3.606121 0.362373 0.328523 0.033850 0.019189 8.275799
26.684100 7.925582 4.267023 3.658559 0.361939 0.328381 0.033558 0.019380 8.306902
27.017651 7.999494 4.245875 3.753619 0.364506 0.328238 0.036268 0.019399 8.383399
27.351202 8.062076 4.224677 3.837399 0.368355 0.328093 0.040262 0.019179 8.449610
27.684753 8.097520 4.203433 3.894087 0.373050 0.327946 0.045104 0.018902 8.489471
28.018305 8.153101 4.182148 3.970953 0.377213 0.327797 0.049416 0.018514 8.548828
28.351856 8.172562 4.160827 4.011735 0.377205 0.327647 0.049558 0.018095 8.567862
28.685407 8.171197 4.139473 4.031724 0.378948 0.327495 0.051453 0.017970 8.568114
29.018958 8.257559 4.118092 4.139468 0.377323 0.327342 0.049981 0.018124 8.653006
29.352510 8.385082 4.096687 4.288395 0.369711 0.327187 0.042524 0.018376 8.773170
29.686061 8.462195 4.075262 4.386933 0.363961 0.327030 0.036931 0.018528 8.844684
30.019612 8.419707 4.053822 4.365885 0.367816 0.326872 0.040944 0.018676 8.806199
30.353163 8.287925 4.032371 4.255554 0.375980 0.326712 0.049268 0.018761 8.682665
30.686715 8.264610 4.010912 4.253698 0.385163 0.326551 0.058613 0.018637 8.668410
31.020266 8.270148 3.989450 4.280698 0.393975 0.326388 0.067588 0.018471 8.682595
31.353817 8.297912 3.967988 4.329924 0.399884 0.326223 0.073661 0.018370 8.716166
31.687368 8.406622 3.946529 4.460092 0.394117 0.326057 0.068061 0.018362 8.819101
32.020920 8.537281 3.925078 4.612203 0.380675 0.325889 0.054786 0.018455 8.936411
32.354471 8.684477 3.903638 4.780839 0.370216 0.325719 0.044496 0.018363 9.073056
32.688022 8.705524 3.882213 4.823311 0.366675 0.325548 0.041127 0.018169 9.090369
33.021573 8.638995 3.860805 4.778190 0.369948 0.325376 0.044573 0.017846 9.026789
33.355125 8.641745 3.839418 4.802327 0.375331 0.325201 0.050130 0.017532 9.034609
33.688676 8.663447 3.818055 4.845391 0.379592 0.325026 0.054567 0.017538 9.060577
34.022227 8.724800 3.796720 4.928079 0.382401 0.324848 0.057553 0.017709 9.124910
34.355778 8.802174 3.775415 5.026759 0.383079 0.324669 0.058409 0.018006 9.203259
34.689330 8.898122 3.754144 5.143978 0.382195 0.324489 0.057706 0.018467 9.298784
35.022881 9.057328 3.732909 5.324419 0.383408 0.324307 0.059100 0.018747 9.459483
35.356432 9.176248 3.711713 5.464535 0.386564 0.324124 0.062440 0.018846 9.581657
35.689983 9.219863 3.690559 5.529305 0.387404 0.323939 0.063465 0.018902 9.626169
36.023535 9.134884 3.669449 5.465435 0.385016 0.323752 0.061264 0.018941 9.538842
36.357086 8.969245 3.648386 5.320858 0.380141 0.323564 0.056577 0.018925 9.368310
36.690637 8.843923 3.627374 5.216550 0.379740 0.323375 0.056365 0.018902 9.242565
37.024188 8.796502 3.606413 5.190090 0.382408 0.323184 0.059225 0.018806 9.197716
37.357740 8.763635 3.585506 5.178129 0.389301 0.322991 0.066310 0.018757 9.171693
37.691291 8.768914 3.564656 5.204257 0.395513 0.322797 0.072716 0.018758 9.183185
38.024842 8.883108 3.543866 5.339242 0.398383 0.322601 0.075781 0.018822 9.300313
38.358393 8.978773 3.523136 5.455637 0.396816 0.322404 0.074412 0.019040 9.394629
38.691945 8.983410 3.502470 5.480940 0.394455 0.322206 0.072249 0.019152 9.397017
39.025496 8.971020 3.481868 5.489152 0.393150 0.322006 0.071144 0.018967 9.383137
39.359047 9.082511 3.461334 5.621176 0.392021 0.321805 0.070216 0.018897 9.493428
39.692598 9.234085 3.440869 5.793215 0.391178 0.321602 0.069577 0.019023 9.644286
40.026150 9.246242 3.420475 5.825767 0.397063 0.321397 0.075666 0.019340 9.662646
40.359701 9.213385 3.400154 5.813231 0.404167 0.321191 0.082975 0.019513 9.637065
40.693252 9.187614 3.379907 5.807707 0.409364 0.320984 0.088379 0.019363 9.616340
41.026803 9.088987 3.359736 5.729251 0.410589 0.320776 0.089813 0.019142 9.518718
41.360355 8.975171 3.339643 5.635528 0.407182 0.320565 0.086617 0.018703 9.401056
41.693906 8.890034 3.319629 5.570405 0.405825 0.320354 0.085471 0.018109 9.313967
42.027457 8.948406 3.299695 5.648711 0.403252 0.320141 0.083111 0.017844 9.369502
42.361008 9.046991 3.279843 5.767148 0.401196 0.319927 0.081269 0.018115 9.466302
42.694560 9.093148 3.260075 5.833073 0.402070 0.319711 0.082359 0.018694 9.513912
43.028111 9.083655 3.240391 5.843264 0.407330 0.319494 0.087837 0.019148 9.510134
43.361662 9.014797 3.220793 5.794004 0.415159 0.319275 0.095884 0.019432 9.449388
43.695213 8.988821 3.201282 5.787538 0.417440 0.319055 0.098384 0.019619 9.425880
44.028765 8.995763 3.181860 5.813904 0.412046 0.318834 0.093212 0.019521 9.427330
44.362316 8.924714 3.162526 5.762188 0.406729 0.318611 0.088118 0.019182 9.350625
44.695867 8.841253 3.143283 5.697970 0.403691 0.318387 0.085304 0.018879 9.263823
45.029418 8.803782 3.124131 5.679651 0.403218 0.318162 0.085056 0.018778 9.225778
45.362970 8.791200 3.105071 5.686129 0.403348 0.317935 0.085413 0.018743 9.213292
45.696521 8.728438 3.086104 5.642333 0.407623 0.317707 0.089916 0.018867 9.154928
46.030072 8.659435 3.067231 5.592203 0.414414 0.317478 0.096936 0.019016 9.092864
46.363623 8.713631 3.048453 5.665178 0.418419 0.317247 0.101172 0.019036 9.151086
46.697175 8.748777 3.029770 5.719007 0.418078 0.317015 0.101064 0.019006 9.185862
47.030726 8.630938 3.011183 5.619755 0.410611 0.316781 0.093829 0.018962 9.060511
47.364277 8.462682 2.992693 5.469989 0.404199 0.316547 0.087653 0.018866 8.885748
47.697828 8.430441 2.974301 5.456140 0.398877 0.316310 0.082567 0.018857 8.848175
48.031380 8.476795 2.956006 5.520789 0.397106 0.316073 0.081033 0.018851 8.892753
48.364931 8.510228 2.937810 5.572418 0.399778 0.315834 0.083943 0.018959 8.928965
48.698482 8.488212 2.919713 5.568498 0.402649 0.315595 0.087054 0.018910 8.909771
49.032033 8.467765 2.901716 5.566050 0.405983 0.315353 0.090630 0.018733 8.892482
49.365585 8.482107 2.883818 5.598289 0.412885 0.315111 0.097774 0.018734 8.913726
49.699136 8.460269 2.866021 5.594248 0.419621 0.314867 0.104754 0.018696 8.898586
50.032687 8.408882 2.848324 5.560557 0.423528 0.314622 0.108906 0.018523 8.850932
50.366238 8.478708 2.830729 5.647979 0.420713 0.314376 0.106337 0.018485 8.917906
50.699790 8.544683 2.813234 5.731449 0.417701 0.314128 0.103573 0.018558 8.980942
51.033341 8.538245 2.795842 5.742404 0.413392 0.313880 0.099513 0.018737 8.970375
51.366892 8.437379 2.778551 5.658829 0.407465 0.313630 0.093835 0.018940 8.863784
51.700443 8.337358 2.761362 5.575996 0.400425 0.313378 0.087047 0.019066 8.756849
52.033995 8.231134 2.744275 5.486859 0.402721 0.313126 0.089595 0.019099 8.652954
52.367546 8.076732 2.727290 5.349442 0.413257 0.312872 0.100385 0.018843 8.508833
52.701097 7.951609 2.710408 5.241201 0.423237 0.312617 0.110620 0.018459 8.393305
53.034648 7.930081 2.693629 5.236453 0.431864 0.312361 0.119502 0.018154 8.380099
53.368200 7.887599 2.676952 5.210647 0.438842 0.312104 0.126738 0.017937 8.344377
53.701751 7.877785 2.660377 5.217408 0.440641 0.311846 0.128795 0.017966 8.336392
54.035302 7.968506 2.643905 5.324600 0.441507 0.311586 0.129920 0.018173 8.428185
54.368853 8.083235 2.627536 5.455699 0.436261 0.311325 0.124935 0.018275 8.537771
54.702404 8.165956 2.611270 5.554687 0.429792 0.311063 0.118728 0.018264 8.614012
55.035956 8.212104 2.595105 5.616998 0.427614 0.310800 0.116814 0.018214 8.657932
55.369507 8.226843 2.579044 5.647799 0.426804 0.310536 0.116268 0.018401 8.672049
55.703058 8.157412 2.563084 5.594328 0.428425 0.310271 0.118154 0.018711 8.604547
56.036609 7.984503 2.547227 5.437275 0.430995 0.310004 0.120991 0.018932 8.434430
56.370161 7.830079 2.531472 5.298607 0.426177 0.309736 0.116441 0.019141 8.275398
56.703712 7.801977 2.515819 5.286158 0.424488 0.309468 0.115020 0.019283 8.245747
57.037263 7.796242 2.500268 5.295974 0.426215 0.309198 0.117017 0.019295 8.241751
57.370814 7.775263 2.484818 5.290445 0.430057 0.308927 0.121130 0.019311 8.224631
57.704366 7.738226 2.469469 5.268757 0.434077 0.308655 0.125422 0.019382 8.191685
58.037917 7.659587 2.454222 5.205365 0.432214 0.308381 0.123833 0.019530 8.111331
58.371468 7.518725 2.439075 5.079650 0.432235 0.308107 0.124128 0.019478 7.970438
58.705019 7.377802 2.424029 4.953773 0.430377 0.307832 0.122546 0.019131 7.827310
59.038571 7.337067 2.409084 4.927983 0.421063 0.307555 0.113508 0.018805 7.776935
59.372122 7.411507 2.394238 5.017269 0.412563 0.307278 0.105285 0.018510 7.842580
59.705673 7.463073 2.379492 5.083581 0.408946 0.306999 0.101947 0.018339 7.890359
60.039224 7.506886 2.364846 5.142041 0.409004 0.306719 0.102285 0.018584 7.934475
60.372776 7.601046 2.350298 5.250748 0.406612 0.306439 0.100173 0.018971 8.026629
60.706327 7.650501 2.335850 5.314651 0.403677 0.306157 0.097520 0.019110 8.073288
61.039878 7.609703 2.321500 5.288203 0.409358 0.305874 0.103484 0.019095 8.038156
61.373429 7.510347 2.307248 5.203099 0.418060 0.305591 0.112469 0.018913 7.947320
61.706981 7.402430 2.293093 5.109336 0.427149 0.305306 0.121843 0.018760 7.848338
62.040532 7.316861 2.279036 5.037825 0.430322 0.305020 0.125302 0.018514 7.765696
62.374083 7.218365 2.265076 4.953289 0.433728 0.304733 0.128995 0.018293 7.670386
62.707634 7.200197 2.251212 4.948985 0.437524 0.304445 0.133079 0.018236 7.655957
63.041186 7.272362 2.237444 5.034918 0.437117 0.304157 0.132960 0.018246 7.727724
63.374737 7.292874 2.223772 5.069102 0.428214 0.303867 0.124347 0.018199 7.739287
63.708288 7.289539 2.210196 5.079344 0.419479 0.303576 0.115903 0.018244 7.727263
64.041839 7.209250 2.196714 5.012537 0.413527 0.303285 0.110242 0.018314 7.641091
64.375391 7.117564 2.183326 4.934238 0.412421 0.302992 0.109430 0.018442 7.548427
64.708942 7.066625 2.170032 4.896593 0.414252 0.302698 0.111553 0.018581 7.499458
65.042493 7.007405 2.156832 4.850573 0.417934 0.302404 0.115530 0.018728 7.444067
65.376044 6.991843 2.143725 4.848118 0.422060 0.302108 0.119951 0.018822 7.432725
65.709596 7.037578 2.130710 4.906868 0.425572 0.301812 0.123760 0.018893 7.482043
66.043147 7.040509 2.117788 4.922722 0.424951 0.301514 0.123436 0.018838 7.484298
66.376698 7.035537 2.104956 4.930581 0.423042 0.301216 0.121826 0.018785 7.477363
66.710249 6.993172 2.092216 4.900955 0.424725 0.300917 0.123808 0.018826 7.436722
67.043801 6.960218 2.079567 4.880651 0.430068 0.300617 0.129451 0.018801 7.409087
67.377352 6.918888 2.067007 4.851880 0.437765 0.300316 0.137449 0.018684 7.375337
67.710903 6.842484 2.054537 4.787946 0.437671 0.300014 0.137657 0.018617 7.298772
68.044454 6.829454 2.042157 4.787297 0.432602 0.299712 0.132891 0.018593 7.280650
68.378006 6.854378 2.029865 4.824513 0.430556 0.299408 0.131148 0.018502 7.303436
68.711557 6.807100 2.017660 4.789439 0.426494 0.299103 0.127391 0.018435 7.252028
69.045108 6.709561 2.005544 4.704017 0.422323 0.298798 0.123525 0.018514 7.150398
69.378659 6.604806 1.993514 4.611292 0.424448 0.298492 0.125956 0.018682 7.047936
69.712211 6.533448 1.981571 4.551877 0.428419 0.298185 0.130234 0.018722 6.980589
70.045762 6.466530 1.969714 4.496816 0.430756 0.297877 0.132879 0.018589 6.915874
70.379313 6.404637 1.957943 4.446695 0.427896 0.297568 0.130328 0.018516 6.851049
70.712864 6.438713 1.946256 4.492457 0.424016 0.297259 0.126757 0.018560 6.881289
71.046416 6.567742 1.934654 4.633089 0.422138 0.296949 0.125189 0.018398 7.008278
71.379967 6.611383 1.923135 4.688248 0.418169 0.296637 0.121531 0.018215 7.047767
71.713518 6.571271 1.911700 4.659571 0.419146 0.296326 0.122821 0.018167 7.008584
72.047069 6.494768 1.900348 4.594419 0.423164 0.296013 0.127151 0.018183 6.936115
72.380621 6.413148 1.889078 4.524070 0.423976 0.295699 0.128277 0.018156 6.855280
72.714172 6.350501 1.877890 4.472611 0.424728 0.295385 0.129343 0.018200 6.793429
73.047723 6.327623 1.866783 4.460840 0.425295 0.295070 0.130225 0.018523 6.771441
73.381274 6.402616 1.855757 4.546859 0.426066 0.294754 0.131312 0.019002 6.847684
73.714826 6.547314 1.844811 4.702503 0.425582 0.294438 0.131145 0.019061 6.991957
74.048377 6.564824 1.833944 4.730880 0.424657 0.294120 0.130536 0.019025 7.008505
74.381928 6.483215 1.823157 4.660058 0.423102 0.293802 0.129300 0.018995 6.925312
74.715479 6.383381 1.812448 4.570933 0.418182 0.293483 0.124699 0.019057 6.820620
75.049031 6.255956 1.801817 4.454139 0.411591 0.293164 0.118428 0.019139 6.686686
75.382582 6.136049 1.791263 4.344786 0.408643 0.292843 0.115800 0.019249 6.563941
75.716133 6.032481 1.780787 4.251694 0.406039 0.292522 0.113517 0.019407 6.457927
76.049684 5.983733 1.770386 4.213346 0.407310 0.292201 0.115109 0.019751 6.410794
76.383236 5.964908 1.760062 4.204846 0.414831 0.291878 0.122953 0.019945 6.399684
76.716787 5.892452 1.749813 4.142639 0.422861 0.291555 0.131306 0.019863 6.335177
77.050338 5.811514 1.739639 4.071875 0.428487 0.291231 0.137255 0.019803 6.259803
77.383889 5.797083 1.729539 4.067544 0.433114 0.290907 0.142207 0.020055 6.250253
77.717441 5.832985 1.719513 4.113473 0.433860 0.290582 0.143278 0.020540 6.287386
78.050992 5.898365 1.709560 4.188805 0.428612 0.290256 0.138356 0.020869 6.347845
78.384543 5.955643 1.699679 4.255964 0.419749 0.289930 0.129819 0.020837 6.396229
78.718094 6.035103 1.689871 4.345232 0.420267 0.289602 0.130665 0.020617 6.475987
79.051646 6.082780 1.680134 4.402645 0.428071 0.289275 0.138796 0.020111 6.530962
79.385197 6.052246 1.670469 4.381777 0.434202 0.288946 0.145256 0.019433 6.505881
79.718748 5.996299 1.660874 4.335425 0.437125 0.288617 0.148508 0.018951 6.452375
80.052299 5.919364 1.651349 4.268015 0.435377 0.288287 0.147089 0.018716 6.373458
