# Column 0: Wavenumber (cm^-1)
# Column 1: Translational
# Column 2: Translational (g)
# Column 3: Translational (s)
# Column 4: Rotational
# Column 5: Rotational (g)
# Column 6: Rotational (s)
# Column 7: Vibrational
# Column 8: Total

0.000000 5.358970 5.358970 0.000000 0.275850 0.275850 0.000000 0.000000 5.634820
0.333551 5.194264 5.194264 0.000000 0.266285 0.275849 0.000000 0.000000 5.460549
0.667102 5.077568 5.077568 0.000000 0.262217 0.275847 0.000000 0.000000 5.339785
1.000654 5.003878 5.003878 0.000000 0.262295 0.275844 0.000000 0.000000 5.266173
1.334205 4.968188 4.968188 0.000000 0.265169 0.275840 0.000000 0.000000 5.233357
1.667756 4.965493 4.965493 0.000000 0.269487 0.275834 0.000000 0.000000 5.234980
2.001307 4.980977 4.980977 0.000000 0.272036 0.275827 0.000000 0.000000 5.253013
2.334859 5.003035 5.003035 0.000000 0.273586 0.275819 0.000000 0.000000 5.276620
2.668410 5.083679 5.083679 0.000000 0.273968 0.275809 0.000000 0.000000 5.357647
3.001961 5.218255 5.218255 0.000000 0.273424 0.275798 0.000000 0.000000 5.491679
3.335512 5.376760 5.338223 0.038537 0.273033 0.275786 0.000000 0.000000 5.649793
3.669064 5.547276 5.333886 0.213390 0.271753 0.275772 0.000000 0.000000 5.819030
4.002615 5.665831 5.329145 0.336686 0.270690 0.275757 0.000000 0.000000 5.936521
4.336166 5.729253 5.324001 0.405252 0.270116 0.275741 0.000000 0.000000 5.999369
4.669717 5.803785 5.318456 0.485329 0.271098 0.275724 0.000000 0.000000 6.074883
5.003269 5.852576 5.312514 0.540062 0.272783 0.275705 0.000000 0.000000 6.125359
5.336820 5.811117 5.306176 0.504941 0.272421 0.275686 0.000000 0.000000 6.083538
5.670371 5.744227 5.299446 0.444781 0.272542 0.275664 0.000000 0.000000 6.016768
6.003922 5.692215 5.292327 0.399888 0.274042 0.275642 0.000000 0.000000 5.966258
6.337474 5.662955 5.284822 0.378133 0.276420 0.275618 0.000801 0.000000 5.939374
6.671025 5.675168 5.276934 0.398234 0.279590 0.275593 0.003997 0.000000 5.954758
7.004576 5.706505 5.268667 0.437839 0.280081 0.275567 0.004514 0.000000 5.986586
7.338127 5.739012 5.260024 0.478988 0.279342 0.275539 0.003803 0.000000 6.018355
7.671679 5.825848 5.251010 0.574838 0.277753 0.275510 0.002242 0.000000 6.103601
8.005230 5.963992 5.241628 0.722364 0.278284 0.275480 0.002804 0.000000 6.242276
8.338781 6.044528 5.231882 0.812646 0.281239 0.275449 0.005791 0.000000 6.325767
8.672332 6.114642 5.221777 0.892865 0.282560 0.275416 0.007144 0.000000 6.397202
9.005884 6.192576 5.211318 0.981259 0.284311 0.275382 0.008929 0.000000 6.476887
9.339435 6.266846 5.200507 1.066339 0.287703 0.275347 0.012356 0.000000 6.554549
9.672986 6.327956 5.189351 1.138605 0.289676 0.275310 0.014365 0.000000 6.617632
10.006537 6.398851 5.177854 1.220998 0.292980 0.275273 0.017707 0.000000 6.691831
10.340089 6.460293 5.166020 1.294273 0.293755 0.275234 0.018521 0.000000 6.754048
10.673640 6.518989 5.153855 1.365134 0.292322 0.275193 0.017129 0.000000 6.811311
11.007191 6.622982 5.141363 1.481619 0.291013 0.275152 0.015862 0.000000 6.913995
11.340742 6.695852 5.128551 1.567301 0.292806 0.275109 0.017697 0.000000 6.988658
11.674294 6.720610 5.115423 1.605188 0.294497 0.275065 0.019432 0.000000 7.015107
12.007845 6.743972 5.101984 1.641989 0.292916 0.275019 0.017896 0.000000 7.036888
12.341396 6.703145 5.088240 1.614906 0.291884 0.274973 0.016911 0.000000 6.995029
12.674947 6.606791 5.074196 1.532595 0.291191 0.274925 0.016266 0.000000 6.897982
13.008499 6.468543 5.059858 1.408685 0.288013 0.274876 0.013138 0.000000 6.756557
13.342050 6.458085 5.045232 1.412853 0.286785 0.274825 0.011960 0.000000 6.744870
13.675601 6.526792 5.030323 1.496469 0.286584 0.274774 0.011810 0.000000 6.813375
14.009152 6.642170 5.015137 1.627033 0.286874 0.274721 0.012153 0.000000 6.929044
14.342704 6.852734 4.999680 1.853055 0.289567 0.274666 0.014901 0.000000 7.142301
14.676255 7.108621 4.983957 2.124664 0.292911 0.274611 0.018300 0.000000 7.401533
15.009806 7.329962 4.967975 2.361986 0.296047 0.274554 0.021492 0.000000 7.626008
15.343357 7.440000 4.951740 2.488260 0.297643 0.274496 0.023147 0.000000 7.737643
15.676909 7.458103 4.935257 2.522846 0.299734 0.274437 0.025297 0.000000 7.757837
16.010460 7.407261 4.918532 2.488729 0.300446 0.274377 0.026069 0.000000 7.707707
16.344011 7.362915 4.901572 2.461342 0.301666 0.274315 0.027351 0.000000 7.664581
16.677562 7.418980 4.884383 2.534597 0.301093 0.274252 0.026841 0.000000 7.720073
17.011114 7.413096 4.866970 2.546127 0.297632 0.274188 0.023444 0.000000 7.710729
17.344665 7.395257 4.849339 2.545918 0.296330 0.274123 0.022207 0.000000 7.691587
17.678216 7.389257 4.831497 2.557760 0.297389 0.274056 0.023333 0.000000 7.686646
18.011767 7.404483 4.813450 2.591033 0.298438 0.273988 0.024450 0.000000 7.702922
18.345319 7.438055 4.795204 2.642851 0.300677 0.273919 0.026758 0.000000 7.738732
18.678870 7.504592 4.776765 2.727827 0.300909 0.273849 0.027061 0.000000 7.805501
19.012421 7.606522 4.758138 2.848384 0.302611 0.273777 0.028834 0.000000 7.909133
19.345972 7.715399 4.739330 2.976069 0.304394 0.273704 0.030690 0.000000 8.019793
19.679524 7.798415 4.720347 3.078068 0.307578 0.273630 0.033948 0.000000 8.105994
20.013075 7.848929 4.701195 3.147734 0.307778 0.273555 0.034223 0.000000 8.156707
20.346626 7.878206 4.681880 3.196326 0.305881 0.273478 0.032403 0.000000 8.184087
20.680177 7.903385 4.662408 3.240978 0.307619 0.273401 0.034218 0.000000 8.211004
21.013729 7.895451 4.642784 3.252667 0.310894 0.273322 0.037572 0.000000 8.206345
21.347280 7.911311 4.623014 3.288297 0.314372 0.273242 0.041131 0.000000 8.225683
21.680831 7.932942 4.603105 3.329837 0.318493 0.273160 0.045332 0.000000 8.251435
22.014382 7.970230 4.583062 3.387168 0.320103 0.273078 0.047025 0.000000 8.290333
22.347934 8.037882 4.562891 3.474991 0.321841 0.272994 0.048847 0.000000 8.359723
22.681485 8.077595 4.542597 3.534998 0.324179 0.272909 0.051270 0.000000 8.401774
23.015036 8.068495 4.522186 3.546308 0.327069 0.272823 0.054246 0.000000 8.395564
23.348587 8.013667 4.501664 3.512003 0.327765 0.272735 0.055030 0.000000 8.341432
23.682139 8.006215 4.481036 3.525179 0.328158 0.272647 0.055511 0.000000 8.334373
24.015690 8.037314 4.460308 3.577006 0.329028 0.272557 0.056471 0.000000 8.366341
24.349241 8.059935 4.439485 3.620450 0.326394 0.272466 0.053928 0.000000 8.386329
24.682792 8.058594 4.418572 3.640022 0.323671 0.272374 0.051297 0.000000 8.382265
25.016344 8.018887 4.397574 3.621313 0.322066 0.272281 0.049786 0.000000 8.340953
25.349895 7.966638 4.376498 3.590140 0.319493 0.272186 0.047307 0.000000 8.286130
25.683446 7.950092 4.355347 3.594745 0.318291 0.272090 0.046201 0.000000 8.268383
26.016997 7.965733 4.334127 3.631606 0.320079 0.271993 0.048086 0.000000 8.285812
26.350549 7.980608 4.312843 3.667765 0.320322 0.271895 0.048427 0.000000 8.300930
26.684100 7.958073 4.291500 3.666573 0.318745 0.271796 0.046949 0.000000 8.276818
27.017651 7.969727 4.270103 3.699624 0.320120 0.271696 0.048425 0.000000 8.289847
27.351202 8.010738 4.248656 3.762082 0.322755 0.271594 0.051161 0.000000 8.333493
27.684753 8.081443 4.227164 3.854279 0.322458 0.271491 0.050967 0.000000 8.403902
28.018305 8.163497 4.205633 3.957864 0.324017 0.271387 0.052629 0.000000 8.487514
28.351856 8.196967 4.184065 4.012902 0.327565 0.271282 0.056283 0.000000 8.524533
28.685407 8.198613 4.162466 4.036147 0.328829 0.271176 0.057654 0.000000 8.527443
29.018958 8.267869 4.140840 4.127029 0.328271 0.271068 0.057203 0.000000 8.596140
29.352510 8.386864 4.119192 4.267672 0.326946 0.270960 0.055986 0.000000 8.713810
29.686061 8.414762 4.097525 4.317236 0.324598 0.270850 0.053748 0.000000 8.739360
30.019612 8.347821 4.075844 4.271976 0.324085 0.270739 0.053346 0.000000 8.671906
30.353163 8.309985 4.054153 4.255832 0.327399 0.270627 0.056772 0.000000 8.637384
30.686715 8.279473 4.032456 4.247017 0.331506 0.270514 0.060992 0.000000 8.610979
31.020266 8.317579 4.010756 4.306823 0.334414 0.270400 0.064014 0.000000 8.651993
31.353817 8.377084 3.989058 4.388026 0.338134 0.270284 0.067850 0.000000 8.715218
31.687368 8.387886 3.967365 4.420521 0.338692 0.270167 0.068524 0.000000 8.726578
32.020920 8.493388 3.945681 4.547707 0.335521 0.270050 0.065471 0.000000 8.828909
32.354471 8.627107 3.924009 4.703098 0.332939 0.269931 0.063008 0.000000 8.960046
32.688022 8.688156 3.902353 4.785803 0.331466 0.269811 0.061655 0.000000 9.019622
33.021573 8.672215 3.880717 4.791499 0.330247 0.269690 0.060557 0.000000 9.002462
33.355125 8.645649 3.859103 4.786546 0.329784 0.269568 0.060217 0.000000 8.975433
33.688676 8.681023 3.837514 4.843509 0.331140 0.269444 0.061696 0.000000 9.012163
34.022227 8.724299 3.815955 4.908344 0.333336 0.269320 0.064016 0.000000 9.057635
34.355778 8.826963 3.794428 5.032535 0.336729 0.269194 0.067535 0.000000 9.163692
34.689330 8.934271 3.772936 5.161335 0.339460 0.269067 0.070393 0.000000 9.273731
35.022881 9.037095 3.751481 5.285614 0.340217 0.268940 0.071278 0.000000 9.377312
35.356432 9.171702 3.730068 5.441634 0.341509 0.268811 0.072698 0.000000 9.513211
35.689983 9.165527 3.708698 5.456829 0.344768 0.268681 0.076087 0.000000 9.510295
36.023535 9.055297 3.687374 5.367923 0.347208 0.268550 0.078658 0.000000 9.402505
36.357086 8.971983 3.666099 5.305884 0.347737 0.268418 0.079320 0.000000 9.319720
36.690637 8.925850 3.644876 5.280974 0.347873 0.268284 0.079589 0.000000 9.273723
37.024188 8.836805 3.623706 5.213099 0.349607 0.268150 0.081456 0.000000 9.186411
37.357740 8.766884 3.602593 5.164291 0.350340 0.268015 0.082326 0.000000 9.117224
37.691291 8.790826 3.581538 5.209288 0.349648 0.267878 0.081770 0.000000 9.140474
38.024842 8.840384 3.560544 5.279840 0.346160 0.267741 0.078419 0.000000 9.186544
38.358393 8.928855 3.539613 5.389242 0.342403 0.267602 0.074801 0.000000 9.271257
38.691945 8.996804 3.518747 5.478057 0.341220 0.267462 0.073757 0.000000 9.338024
39.025496 9.037644 3.497948 5.539696 0.342245 0.267322 0.074923 0.000000 9.379889
39.359047 9.105889 3.477218 5.628672 0.341591 0.267180 0.074411 0.000000 9.447480
39.692598 9.185967 3.456559 5.729409 0.342887 0.267037 0.075850 0.000000 9.528854
40.026150 9.231903 3.435972 5.795931 0.347783 0.266893 0.080890 0.000000 9.579686
40.359701 9.200004 3.415461 5.784543 0.354098 0.266748 0.087350 0.000000 9.554102
40.693252 9.140966 3.395025 5.745940 0.357787 0.266602 0.091185 0.000000 9.498753
41.026803 9.086333 3.374668 5.711665 0.358607 0.266455 0.092152 0.000000 9.444940
41.360355 9.004295 3.354390 5.649905 0.357640 0.266307 0.091333 0.000000 9.361935
41.693906 8.972123 3.334193 5.637930 0.356410 0.266158 0.090252 0.000000 9.328532
42.027457 8.967670 3.314078 5.653592 0.357565 0.266008 0.091557 0.000000 9.325235
42.361008 9.022707 3.294047 5.728659 0.358182 0.265856 0.092325 0.000000 9.380888
42.694560 9.061986 3.274102 5.787884 0.358046 0.265704 0.092342 0.000000 9.420032
43.028111 9.016886 3.254242 5.762644 0.361198 0.265551 0.095647 0.000000 9.378084
43.361662 9.023354 3.234471 5.788883 0.365340 0.265397 0.099944 0.000000 9.388694
43.695213 9.063056 3.214788 5.848267 0.366513 0.265242 0.101272 0.000000 9.429569
44.028765 9.004486 3.195196 5.809291 0.365063 0.265085 0.099978 0.000000 9.369550
44.362316 8.883858 3.175694 5.708164 0.362925 0.264928 0.097997 0.000000 9.246783
44.695867 8.814185 3.156285 5.657900 0.362224 0.264770 0.097454 0.000000 9.176410
45.029418 8.814063 3.136969 5.677094 0.362951 0.264611 0.098340 0.000000 9.177014
45.362970 8.795539 3.117746 5.677793 0.365436 0.264450 0.100985 0.000000 9.160975
45.696521 8.764107 3.098619 5.665488 0.368421 0.264289 0.104132 0.000000 9.132528
46.030072 8.721106 3.079587 5.641519 0.373572 0.264127 0.109445 0.000000 9.094678
46.363623 8.665666 3.060652 5.605015 0.379807 0.263964 0.115843 0.000000 9.045473
46.697175 8.655319 3.041814 5.613505 0.378221 0.263800 0.114421 0.000000 9.033539
47.030726 8.611452 3.023074 5.588378 0.372917 0.263635 0.109282 0.000000 8.984369
47.364277 8.527948 3.004432 5.523516 0.366444 0.263469 0.102975 0.000000 8.894392
47.697828 8.481902 2.985890 5.496012 0.362592 0.263302 0.099290 0.000000 8.844494
48.031380 8.501711 2.967447 5.534264 0.361269 0.263134 0.098136 0.000000 8.862980
48.364931 8.481790 2.949105 5.532686 0.359873 0.262965 0.096909 0.000000 8.841664
48.698482 8.434674 2.930863 5.503811 0.359194 0.262795 0.096399 0.000000 8.793868
49.032033 8.452602 2.912723 5.539879 0.361959 0.262624 0.099335 0.000000 8.814561
49.365585 8.491856 2.894684 5.597172 0.368755 0.262452 0.106303 0.000000 8.860611
49.699136 8.483209 2.876747 5.606462 0.373644 0.262279 0.111364 -0.000000 8.856853
50.032687 8.484707 2.858913 5.625794 0.371836 0.262106 0.109731 -0.000000 8.856543
50.366238 8.467322 2.841181 5.626141 0.371390 0.261931 0.109459 -0.000000 8.838712
50.699790 8.482164 2.823552 5.658612 0.369949 0.261756 0.108193 -0.000000 8.852112
51.033341 8.498193 2.806026 5.692166 0.369666 0.261579 0.108087 0.000000 8.867859
51.366892 8.474711 2.788604 5.686106 0.366171 0.261402 0.104769 0.000000 8.840881
51.700443 8.340479 2.771286 5.569194 0.362116 0.261223 0.100893 0.000000 8.702595
52.033995 8.182926 2.754071 5.428856 0.358920 0.261044 0.097876 0.000000 8.541846
52.367546 8.088273 2.736960 5.351313 0.360951 0.260864 0.100087 0.000000 8.449224
52.701097 8.003942 2.719953 5.283989 0.366730 0.260683 0.106047 0.000000 8.370672
53.034648 7.914140 2.703050 5.211090 0.371458 0.260501 0.110957 0.000000 8.285598
53.368200 7.890446 2.686251 5.204195 0.375513 0.260319 0.115195 -0.000000 8.265959
53.701751 7.914809 2.669557 5.245252 0.381070 0.260135 0.120935 0.000000 8.295879
54.035302 7.970992 2.652966 5.318026 0.383544 0.259950 0.123593 0.000000 8.354536
54.368853 8.075042 2.636480 5.438562 0.383682 0.259765 0.123917 0.000000 8.458724
54.702404 8.177518 2.620098 5.557420 0.383313 0.259579 0.123734 -0.000000 8.560830
55.035956 8.204693 2.603819 5.600874 0.382728 0.259392 0.123336 -0.000000 8.587421
55.369507 8.168516 2.587645 5.580871 0.379786 0.259204 0.120583 -0.000000 8.548302
55.703058 8.091932 2.571574 5.520357 0.376989 0.259015 0.117975 -0.000000 8.468921
56.036609 7.998132 2.555607 5.442525 0.372903 0.258825 0.114078 -0.000000 8.371035
56.370161 7.916629 2.539744 5.376885 0.370780 0.258634 0.112146 -0.000000 8.287409
56.703712 7.854957 2.523984 5.330974 0.371883 0.258443 0.113441 0.000000 8.226841
57.037263 7.796122 2.508327 5.287795 0.375165 0.258251 0.116914 0.000000 8.171286
57.370814 7.733041 2.492772 5.240268 0.375316 0.258057 0.117259 0.000000 8.108357
57.704366 7.686483 2.477321 5.209162 0.372365 0.257863 0.114502 0.000000 8.058848
58.037917 7.614642 2.461972 5.152671 0.371821 0.257669 0.114152 0.000000 7.986463
58.371468 7.530277 2.446725 5.083552 0.371042 0.257473 0.113569 0.000000 7.901319
58.705019 7.450037 2.431580 5.018457 0.370867 0.257277 0.113591 0.000000 7.820905
59.038571 7.396534 2.416537 4.979997 0.367013 0.257079 0.109934 0.000000 7.763547
59.372122 7.374514 2.401595 4.972919 0.362229 0.256881 0.105348 0.000000 7.736743
59.705673 7.438272 2.386754 5.051517 0.362046 0.256682 0.105363 0.000000 7.800317
60.039224 7.538676 2.372014 5.166662 0.362851 0.256483 0.106369 0.000000 7.901527
60.372776 7.599269 2.357374 5.241895 0.363177 0.256282 0.106894 0.000000 7.962445
60.706327 7.623393 2.342834 5.280559 0.363494 0.256081 0.107413 0.000000 7.986887
61.039878 7.578113 2.328394 5.249719 0.363099 0.255879 0.107220 0.000000 7.941212
61.373429 7.482983 2.314053 5.168930 0.366376 0.255676 0.110700 0.000000 7.849359
61.706981 7.401680 2.299811 5.101869 0.370187 0.255472 0.114714 0.000000 7.771866
62.040532 7.337047 2.285667 5.051380 0.375037 0.255268 0.119769 -0.000000 7.712084
62.374083 7.283682 2.271621 5.012061 0.379322 0.255063 0.124260 -0.000000 7.663004
62.707634 7.244232 2.257673 4.986559 0.382855 0.254857 0.127998 -0.000000 7.627086
63.041186 7.227704 2.243822 4.983882 0.381871 0.254650 0.127221 -0.000000 7.609575
63.374737 7.264660 2.230068 5.034591 0.376492 0.254443 0.122049 -0.000000 7.641151
63.708288 7.254040 2.216410 5.037630 0.371234 0.254234 0.117000 -0.000000 7.625274
64.041839 7.203882 2.202849 5.001034 0.370912 0.254025 0.116887 -0.000000 7.574794
64.375391 7.141860 2.189382 4.952478 0.374052 0.253816 0.120236 -0.000000 7.515911
64.708942 7.068093 2.176011 4.892082 0.377673 0.253605 0.124068 -0.000000 7.445766
65.042493 7.028228 2.162734 4.865494 0.379266 0.253394 0.125872 -0.000000 7.407494
65.376044 7.020203 2.149551 4.870653 0.381827 0.253182 0.128645 -0.000000 7.402030
65.709596 7.025045 2.136461 4.888584 0.386894 0.252969 0.133924 0.000000 7.411939
66.043147 7.026581 2.123465 4.903116 0.390185 0.252756 0.137429 0.000000 7.416766
66.376698 7.004970 2.110561 4.894409 0.390158 0.252542 0.137616 0.000000 7.395128
66.710249 7.005980 2.097749 4.908231 0.389378 0.252327 0.137051 0.000000 7.395359
67.043801 6.960419 2.085029 4.875390 0.389876 0.252112 0.137765 0.000000 7.350295
67.377352 6.903527 2.072400 4.831127 0.390368 0.251895 0.138473 0.000000 7.293895
67.710903 6.880429 2.059861 4.820568 0.391695 0.251678 0.140017 -0.000000 7.272124
68.044454 6.859435 2.047413 4.812023 0.391996 0.251461 0.140535 -0.000000 7.251431
68.378006 6.823417 2.035053 4.788364 0.390201 0.251243 0.138958 0.000000 7.213618
68.711557 6.777732 2.022783 4.754949 0.387781 0.251024 0.136757 0.000000 7.165513
69.045108 6.689336 2.010601 4.678734 0.388967 0.250804 0.138164 0.000000 7.078303
69.378659 6.605627 1.998507 4.607120 0.391520 0.250583 0.140936 0.000000 6.997147
69.712211 6.546516 1.986501 4.560015 0.393368 0.250362 0.143006 0.000000 6.939884
70.045762 6.482701 1.974581 4.508120 0.392904 0.250141 0.142764 0.000000 6.875606
70.379313 6.439133 1.962748 4.476385 0.391107 0.249918 0.141188 0.000000 6.830240
70.712864 6.479539 1.951000 4.528539 0.387492 0.249695 0.137797 0.000000 6.867031
71.046416 6.543846 1.939338 4.604508 0.385417 0.249472 0.135945 0.000000 6.929263
71.379967 6.565789 1.927760 4.638028 0.384926 0.249247 0.135679 0.000000 6.950715
71.713518 6.536460 1.916267 4.620193 0.383567 0.249022 0.134545 0.000000 6.920027
72.047069 6.471327 1.904857 4.566470 0.381929 0.248797 0.133132 0.000000 6.853255
72.380621 6.411304 1.893530 4.517773 0.383066 0.248571 0.134495 0.000000 6.794370
72.714172 6.400510 1.882286 4.518224 0.384151 0.248344 0.135807 0.000000 6.784661
73.047723 6.416005 1.871124 4.544881 0.384822 0.248116 0.136706 0.000000 6.800827
73.381274 6.438662 1.860043 4.578619 0.384479 0.247888 0.136591 0.000000 6.823141
73.714826 6.462542 1.849043 4.613500 0.383178 0.247659 0.135519 0.000000 6.845721
74.048377 6.495634 1.838123 4.657511 0.380228 0.247430 0.132798 0.000000 6.875862
74.381928 6.467312 1.827283 4.640028 0.377160 0.247200 0.129960 -0.000000 6.844471
74.715479 6.396400 1.816522 4.579877 0.375983 0.246969 0.129013 -0.000000 6.772382
75.049031 6.294241 1.805840 4.488401 0.375273 0.246738 0.128534 -0.000000 6.669514
75.382582 6.148057 1.795237 4.352821 0.372703 0.246507 0.126197 -0.000000 6.520761
75.716133 6.038033 1.784710 4.253322 0.371975 0.246274 0.125701 -0.000000 6.410008
76.049684 5.981438 1.774261 4.207177 0.375072 0.246041 0.129031 -0.000000 6.356511
76.383236 5.939945 1.763889 4.176057 0.380461 0.245808 0.134653 -0.000000 6.320406
76.716787 5.886083 1.753592 4.132491 0.384590 0.245574 0.139017 -0.000000 6.270673
77.050338 5.826992 1.743371 4.083621 0.385818 0.245339 0.140479 0.000000 6.212809
77.383889 5.804729 1.733224 4.071504 0.384331 0.245104 0.139227 0.000000 6.189060
77.717441 5.851243 1.723152 4.128091 0.383082 0.244868 0.138214 0.000000 6.234325
78.050992 5.914845 1.713154 4.201691 0.380298 0.244632 0.135667 0.000000 6.295143
78.384543 5.973315 1.703229 4.270086 0.378949 0.244395 0.134554 -0.000000 6.352264
78.718094 6.004816 1.693377 4.311439 0.379641 0.244157 0.135484 -0.000000 6.384457
79.051646 6.029679 1.683597 4.346082 0.384747 0.243919 0.140828 -0.000000 6.414426
79.385197 6.053849 1.673889 4.379961 0.392609 0.243681 0.148928 -0.000000 6.446458
79.718748 6.009462 1.664251 4.345210 0.396753 0.243442 0.153312 -0.000000 6.406215
